"Latest: Time (s)","Latest: Potential (V)","Latest: Current (A)","FFT: Time - Frequency (Hz)","FFT: Potential - FFT"
0,-2.0959854126,-0.0893311758773,0,0.00855752851504
0.0001,-2.33898162842,-0.105670757735,0.6103515625,0.455973198791
0.0002,-2.5577545166,-0.122476297249,1.220703125,0.483198175633
0.0003,-2.77328491211,-0.136827793101,1.8310546875,0.194507809676
0.0004,-2.97069549561,-0.151179288953,2.44140625,0.0175292016316
0.0005,-3.1530380249,-0.165002699459,3.0517578125,0.0270424580648
0.0006,-3.31687927246,-0.176403130147,3.662109375,0.0121849072844
0.0007,-3.46279144287,-0.188269518492,4.2724609375,0.00524237811791
0.0008,-3.60240936279,-0.198147820831,4.8828125,0.00870030991277
0.0009,-3.71189117432,-0.207560165513,5.4931640625,0.00485646036909
0.001,-3.80592346191,-0.215481445691,6.103515625,0.00381446308148
0.0011,-3.89404296875,-0.222408682866,6.7138671875,0.0093926105664
0.0012,-3.94878387451,-0.227844855538,7.32421875,0.00961841914598
0.0013,-3.97911071777,-0.231789963705,7.9345703125,0.0116120308024
0.0014,-3.99723052979,-0.234772092713,8.544921875,0.0147604812984
0.0015,-3.99131774902,-0.236232093373,9.1552734375,0.01363672828
0.0016,-3.96690368652,-0.236729114874,9.765625,0.00920471819467
0.0017,-3.9213180542,-0.236232093373,10.3759765625,0.00510154040267
0.0018,-3.84540557861,-0.234275071211,10.986328125,0.00405550413493
0.0019,-3.76644134521,-0.230795920702,11.5966796875,0.00510460713942
0.002,-3.66325378418,-0.226353791033,12.20703125,0.00491564208722
0.0021,-3.53870391846,-0.220420596861,12.8173828125,0.00396443869742
0.0022,-3.39298248291,-0.212996338184,13.427734375,0.00204116652521
0.0023,-3.23791503906,-0.205075058007,14.0380859375,0.000779130530338
0.0024,-3.06186676025,-0.195693777168,14.6484375,0.00208374623713
0.0025,-2.8736114502,-0.184790367982,15.2587890625,0.00169603720536
0.0026,-2.66704559326,-0.172426958136,15.869140625,0.0012057070763
0.0027,-2.45132446289,-0.160560569791,16.4794921875,0.000894606462404
0.0028,-2.21748352051,-0.147700138443,17.08984375,0.00119239147469
0.0029,-1.9775390625,-0.133845664093,17.7001953125,0.000611331768388
0.003,-1.72233581543,-0.117040124578,18.310546875,0.00215419392429
0.0031,-1.45816802979,-0.101694585724,18.9208984375,0.00398469056353
0.0032,-1.19400024414,-0.0858830892116,19.53125,0.00452221764792
0.0033,-0.917625427246,-0.0685494643517,20.1416015625,0.0036836354462
0.0034,-0.629043579102,-0.0512469033356,20.751953125,0.00244431752714
0.0035,-0.346565246582,-0.0339443423195,21.3623046875,0.00263352006145
0.0036,-0.0640869140625,-0.0161136959582,21.97265625,0.00229879751763
0.0037,0.218391418457,0.00168588655924,22.5830078125,0.00247860494537
0.0038,0.503921508789,0.0194854690767,23.193359375,0.00311749521098
0.0039,0.786399841309,0.0372850515942,23.8037109375,0.0027790316852
0.004,1.05972290039,0.0546186764541,24.4140625,0.00170678146
0.0041,1.32999420166,0.0734123019743,25.0244140625,0.00103738620044
0.0042,1.60026550293,0.090217841489,25.634765625,0.00102302987789
0.0043,1.85241699219,0.106557423346,26.2451171875,0.00192380216121
0.0044,2.09541320801,0.123362962861,26.85546875,0.00319471001659
0.0045,2.32620239258,0.14019956622,27.4658203125,0.00327649198458
0.0046,2.55393981934,0.15551404123,28.076171875,0.00205183951036
0.0047,2.76355743408,0.169368515581,28.6865234375,0.00142029014993
0.0048,2.95486450195,0.183222989931,29.296875,0.00179277823324
0.0049,3.12805175781,0.19658044278,29.9072265625,0.000923464212904
0.005,3.28903198242,0.207949809624,30.517578125,0.00167848722269
0.0051,3.42864990234,0.218356197308,31.1279296875,0.00453035477648
0.0052,3.55625152588,0.228234499648,31.73828125,0.00504014382178
0.0053,3.66249084473,0.237149822829,32.3486328125,0.0032139941182
0.0054,3.74755859375,0.244077060004,32.958984375,0.0027902522401
0.0055,3.81145477295,0.250507275678,33.5693359375,0.00279731206574
0.0056,3.85704040527,0.255446426847,34.1796875,0.00161755429497
0.0057,3.88126373291,0.259888556516,34.7900390625,0.000509304680901
0.0058,3.89347076416,0.262373664023,35.400390625,0.00162103840199
0.0059,3.87210845947,0.263864728527,36.0107421875,0.00293387428327
0.006,3.83567810059,0.263864728527,36.62109375,0.00470315027576
0.0061,3.78112792969,0.261876642521,37.2314453125,0.00623672894542
0.0062,3.70502471924,0.258894513513,37.841796875,0.00508973777783
0.0063,3.61099243164,0.254452383845,38.4521484375,0.00263485777736
0.0064,3.49864959717,0.249513232675,39.0625,0.00182048473724
0.0065,3.3618927002,0.2425859955,39.6728515625,0.000927307101183
0.0066,3.21311950684,0.234664715322,40.283203125,0.000776241707254
0.0067,3.0460357666,0.225749392141,40.8935546875,0.00147988134007
0.0068,2.86388397217,0.216368111303,41.50390625,0.00214228229567
0.0069,2.66036987305,0.204998744459,42.1142578125,0.00241092364165
0.007,2.44770050049,0.192138313112,42.724609375,0.00190098408789
0.0071,2.21385955811,0.179774903265,43.3349609375,0.000880088530167
0.0072,1.97696685791,0.165920428915,43.9453125,0.000524174794055
0.0073,1.72481536865,0.151071911562,44.5556640625,0.000645917912887
0.0074,1.46369934082,0.136223394209,45.166015625,0.000898423209896
0.0075,1.19934082031,0.119417854694,45.7763671875,0.00152418560075
0.0076,0.92601776123,0.102581251335,46.38671875,0.00358239775416
0.0077,0.643539428711,0.0857757118206,46.9970703125,0.00738817043275
0.0078,0.358009338379,0.0689701723059,47.607421875,0.00943841356141
0.0079,0.0785827636719,0.0506425044432,48.2177734375,0.00727028584726
0.008,-0.203895568848,0.0328429219257,48.828125,0.00433444117114
0.0081,-0.492286682129,0.0145463179069,49.4384765625,0.00352801626942
0.0082,-0.768661499023,-0.00275624310916,50.048828125,0.00249527364098
0.0083,-1.05419158936,-0.0205868894705,50.6591796875,0.00139359633666
0.0084,-1.33056640625,-0.0383864719879,51.26953125,0.00135895289103
0.0085,-1.60102844238,-0.0561860545054,51.8798828125,0.00224935786055
0.0086,-1.85604095459,-0.0734886155215,52.490234375,0.00205880575421
0.0087,-2.10819244385,-0.0898281973787,53.1005859375,4.55192448743E-05
0.0088,-2.34813690186,-0.106136715392,53.7109375,0.00226283928454
0.0089,-2.56977081299,-0.122973318751,54.3212890625,0.00320206712096
0.009,-2.78549194336,-0.137324814602,54.931640625,0.00313959739765
0.0091,-2.98290252686,-0.15164524661,55.5419921875,0.00251474621458
0.0092,-3.15895080566,-0.164505677958,56.15234375,0.00148825486004
0.0093,-3.32298278809,-0.176403130147,56.7626953125,0.000617787317013
0.0094,-3.47499847412,-0.188269518492,57.373046875,0.000790723697381
0.0095,-3.60546112061,-0.198644842333,57.9833984375,0.00121657301429
0.0096,-3.71780395508,-0.207063144012,58.59375,0.00284808447344
0.0097,-3.81202697754,-0.21498442419,59.2041015625,0.0107829856145
0.0098,-3.89404296875,-0.221911661365,59.814453125,0.0161690429516
0.0099,-3.94878387451,-0.226850812535,60.4248046875,0.0136650380196
0.01,-3.9852142334,-0.231789963705,61.03515625,0.0063505371889
0.0101,-4.0002822876,-0.234772092713,61.6455078125,0.000619175454411
0.0102,-3.99131774902,-0.235735071872,62.255859375,0.00337145666508
0.0103,-3.96690368652,-0.236232093373,62.8662109375,0.00402880338687
0.0104,-3.91826629639,-0.235735071872,63.4765625,0.00430411607144
0.0105,-3.84845733643,-0.232784006707,64.0869140625,0.00461191214086
0.0106,-3.76033782959,-0.230298899201,64.697265625,0.00355717202964
0.0107,-3.65715026855,-0.225359748031,65.3076171875,0.00224178735801
0.0108,-3.53260040283,-0.219426553858,65.91796875,0.00336681023519
0.0109,-3.39298248291,-0.212499316683,66.5283203125,0.00461798789239
0.011,-3.2320022583,-0.204578036505,67.138671875,0.00380354976598
0.0111,-3.05881500244,-0.194699734166,67.7490234375,0.00257275433345
0.0112,-2.86750793457,-0.183330367322,68.359375,0.00210741206192
0.0113,-2.66094207764,-0.172426958136,68.9697265625,0.0014245543186
0.0114,-2.44522094727,-0.159566526788,69.580078125,0.00185115294172
0.0115,-2.20832824707,-0.146706095441,70.1904296875,0.00266107393031
0.0116,-1.96838378906,-0.132354599589,70.80078125,0.00295514615792
0.0117,-1.71642303467,-0.115549060074,71.4111328125,0.00206395097416
0.0118,-1.45206451416,-0.100700542721,72.021484375,0.00169183014149
0.0119,-1.1848449707,-0.0843920247075,72.6318359375,0.00392154583551
0.012,-0.908470153809,-0.0680524428503,73.2421875,0.00245445908644
0.0121,-0.622940063477,-0.0502528603329,73.8525390625,0.00240592210155
0.0122,-0.334358215332,-0.0329502993168,74.462890625,0.00387952865236
0.0123,-0.0518798828125,-0.0151196529555,75.0732421875,0.00518791815066
0.0124,0.227546691895,0.0021829080606,75.68359375,0.00471157359269
0.0125,0.512886047363,0.0204795120794,76.2939453125,0.00261130346246
0.0126,0.795364379883,0.0382790945969,76.904296875,0.00256212000972
0.0127,1.06887817383,0.0561097409582,77.5146484375,0.00374572774004
0.0128,1.34220123291,0.0739093234756,78.125,0.00261135120138
0.0129,1.60636901855,0.0912118844917,78.7353515625,0.00116910564537
0.013,1.85852050781,0.107551466349,79.345703125,0.00117126569404
0.0131,2.10456848145,0.124357005864,79.9560546875,0.00112902788173
0.0132,2.34451293945,0.141162545378,80.56640625,0.00311952612845
0.0133,2.56614685059,0.156011062732,81.1767578125,0.00162856470491
0.0134,2.77271270752,0.170362558583,81.787109375,0.00205226093497
0.0135,2.96096801758,0.183720011432,82.3974609375,0.00498460349746
0.0136,3.13415527344,0.197077464281,83.0078125,0.00380700708961
0.0137,3.29208374023,0.208943852626,83.6181640625,0.00198478200363
0.0138,3.43475341797,0.219816197969,84.228515625,0.00322079799082
0.0139,3.5623550415,0.228731521149,84.8388671875,0.00244331751515
0.014,3.66249084473,0.23764684433,85.44921875,0.00359276919476
0.0141,3.74755859375,0.244574081505,86.0595703125,0.00149231487281
0.0142,3.81450653076,0.250507275678,86.669921875,0.000666095931675
0.0143,3.85704040527,0.255943448349,87.2802734375,0.00194283248386
0.0144,3.88126373291,0.260385578017,87.890625,0.000509848874638
0.0145,3.89347076416,0.262373664023,88.5009765625,0.0028159615707
0.0146,3.87210845947,0.263864728527,89.111328125,0.00158032985174
0.0147,3.83567810059,0.263864728527,89.7216796875,0.00366059583883
0.0148,3.77807617188,0.261876642521,90.33203125,0.00183016699568
0.0149,3.70197296143,0.258894513513,90.9423828125,0.000287355042978
0.015,3.60488891602,0.254452383845,91.552734375,0.00370251590606
0.0151,3.48644256592,0.249016211174,92.1630859375,0.00520541397433
0.0152,3.35578918457,0.2425859955,92.7734375,0.00619562207748
0.0153,3.20091247559,0.234664715322,93.3837890625,0.00389477897376
0.0154,3.03688049316,0.225749392141,93.994140625,0.00208041067706
0.0155,2.85472869873,0.215871089802,94.6044921875,0.00533564026219
0.0156,2.65121459961,0.204998744459,95.21484375,0.010475320314
0.0157,2.43854522705,0.192138313112,95.8251953125,0.00818192494851
0.0158,2.20470428467,0.179277881764,96.435546875,0.00580659145504
0.0159,1.96781158447,0.165423407414,97.0458984375,0.00341559146733
0.016,1.71871185303,0.151071911562,97.65625,0.00731516802002
0.0161,1.45149230957,0.135726372707,98.2666015625,0.010077485858
0.0162,1.18732452393,0.118920833193,98.876953125,0.00759704183401
0.0163,0.91381072998,0.102084229834,99.4873046875,0.0121990148553
0.0164,0.631523132324,0.0857757118206,100.09765625,0.00696386635036
0.0165,0.345993041992,0.0674791078018,100.708007812,0.0137136890783
0.0166,0.0574111938477,0.0496795252843,101.318359375,0.0156197306526
0.0167,-0.218963623047,0.0323459004244,101.928710938,0.00329325480149
0.0168,-0.504493713379,0.0145463179069,102.5390625,0.0269908993518
0.0169,-0.790023803711,-0.00325326461052,103.149414062,0.0133815512362
0.017,-1.06945037842,-0.0210839109718,103.759765625,0.0252385935708
0.0171,-1.3427734375,-0.0388834934893,104.370117188,0.0358683172
0.0172,-1.60999298096,-0.0561860545054,104.98046875,0.00341740755596
0.0173,-1.87740325928,-0.0744826585242,105.590820312,0.0574960238328
0.0174,-2.11734771729,-0.0908222403814,106.201171875,0.0453946298864
0.0175,-2.35729217529,-0.106633736893,106.811523438,0.0546362518408
0.0176,-2.58197784424,-0.123470340252,107.421875,0.106666255635
0.0177,-2.7946472168,-0.137821836104,108.032226562,0.0193875316
0.0178,-2.98595428467,-0.152142268112,108.642578125,0.178457892634
0.0179,-3.16505432129,-0.164505677958,109.252929688,0.191339409657
0.018,-3.33213806152,-0.176403130147,109.86328125,0.158805386762
0.0181,-3.48091125488,-0.188766539993,110.473632812,0.550189593934
0.0182,-3.61156463623,-0.198644842333,111.083984375,0.236325770119
0.0183,-3.7239074707,-0.207063144012,111.694335938,1.22785103216
0.0184,-3.81813049316,-0.215481445691,112.3046875,2.38259585058
0.0185,-3.90014648438,-0.221911661365,112.915039062,1.82628365344
0.0186,-3.95469665527,-0.227844855538,113.525390625,28.3670009617
0.0187,-3.9852142334,-0.231292942203,114.135742188,92.9889600175
0.0188,-4.0002822876,-0.234275071211,114.74609375,147.951057958
0.0189,-3.99131774902,-0.236232093373,115.356445312,141.850775014
0.019,-3.96385192871,-0.236729114874,115.966796875,80.7478931126
0.0191,-3.91826629639,-0.235269114214,116.577148438,20.1875975357
0.0192,-3.8423538208,-0.232784006707,117.1875,3.31221116111
0.0193,-3.75442504883,-0.230298899201,117.797851562,1.51032783851
0.0194,-3.65104675293,-0.224862726529,118.408203125,1.3007001268
0.0195,-3.52649688721,-0.218432510856,119.018554688,0.0499189192396
0.0196,-3.38077545166,-0.212002295182,119.62890625,0.473663746929
0.0197,-3.22284698486,-0.203583993502,120.239257812,0.242992010815
0.0198,-3.04660797119,-0.193705691163,120.849609375,0.112715679046
0.0199,-2.85835266113,-0.182833345821,121.459960938,0.184896165641
0.02,-2.6517868042,-0.171432915133,122.0703125,0.0329331985364
0.0201,-2.43320465088,-0.159069505287,122.680664062,0.0912628153839
0.0202,-2.19631195068,-0.145712052438,123.291015625,0.0715800491624
0.0203,-1.95941925049,-0.13139162043,123.901367188,0.0212635771929
0.0204,-1.70421600342,-0.115549060074,124.51171875,0.0607948062399
0.0205,-1.43699645996,-0.0997064997182,125.122070312,0.015955524289
0.0206,-1.15146636963,-0.0824039387021,125.732421875,0.0285288585578
0.0207,-0.893211364746,-0.0670583998476,126.342773438,0.0299171500656
0.0208,-0.604629516602,-0.0492588173302,126.953125,0.0101378198694
0.0209,-0.322341918945,-0.0314592348127,127.563476562,0.0250639466751
0.021,-0.0429153442383,-0.014653695298,128.173828125,0.0127305996989
0.0211,0.239562988281,0.00317695106332,128.784179688,0.0128846666015
0.0212,0.525093078613,0.0209765335808,129.39453125,0.0147768906901
0.0213,0.810623168945,0.039770159101,130.004882812,0.0041001380451
0.0214,1.08089447021,0.057072720117,130.615234375,0.0153643873045
0.0215,1.3542175293,0.0754003879797,131.225585938,0.0041295386985
0.0216,1.6185760498,0.0922059274944,131.8359375,0.00205578140085
0.0217,1.8705368042,0.109508488511,132.446289062,0.0108278449817
0.0218,2.11353302002,0.125351048866,133.056640625,0.00258340019198
0.0219,2.35347747803,0.142156588381,133.666992188,0.00797208447171
0.022,2.5691986084,0.157005105734,134.27734375,0.00572659328104
0.0221,2.77881622314,0.170859580085,134.887695312,0.00435181672754
0.0222,2.9670715332,0.184714054435,135.498046875,0.00328080103424
0.0223,3.14331054688,0.198071507284,136.108398438,0.0030310487136
0.0224,3.29818725586,0.209440874128,136.71875,0.00382830763129
0.0225,3.43780517578,0.22031321947,137.329101562,0.00466909868975
0.0226,3.57456207275,0.230222585653,137.939453125,0.00336918647211
0.0227,3.66554260254,0.23764684433,138.549804688,0.00457423292572
0.0228,3.75061035156,0.245040039163,139.16015625,0.0031107019639
0.0229,3.81450653076,0.251004297179,139.770507812,0.00481765538826
0.023,3.86009216309,0.255943448349,140.380859375,0.000373256904142
0.0231,3.88736724854,0.260385578017,140.991210938,0.00246248019814
0.0232,3.89347076416,0.262870685524,141.6015625,0.00443506727505
0.0233,3.86905670166,0.263864728527,142.211914062,0.00194830605083
0.0234,3.83262634277,0.263864728527,142.822265625,0.00453607717614
0.0235,3.77502441406,0.261876642521,143.432617188,0.00737093889565
0.0236,3.69911193848,0.25790047051,144.04296875,0.0036115872783
0.0237,3.6018371582,0.254452383845,144.653320312,0.00110651814328
0.0238,3.48339080811,0.248519189672,145.263671875,0.0025020887118
0.0239,3.34968566895,0.2425859955,145.874023438,0.00277597008716
0.024,3.19786071777,0.234664715322,146.484375,0.00152861281204
0.0241,3.03077697754,0.225749392141,147.094726562,0.00304099961821
0.0242,2.84557342529,0.2153740683,147.705078125,0.00524271323384
0.0243,2.64205932617,0.204998744459,148.315429688,0.00308911201739
0.0244,2.42938995361,0.19164129161,148.92578125,0.00153459948781
0.0245,2.19554901123,0.178780860263,149.536132812,0.0016851863188
0.0246,1.92832946777,0.163932342909,150.146484375,0.00203441221744
0.0247,1.70669555664,0.15057489006,150.756835938,0.00140763382186
0.0248,1.44233703613,0.135229351206,151.3671875,0.00151376967249
0.0249,1.17511749268,0.118423811691,151.977539062,0.00057138442983
0.025,0.901794433594,0.101618272176,152.587890625,0.00118086242744
0.0251,0.619316101074,0.0847816688179,153.198242188,0.00236037185015
0.0252,0.333786010742,0.0669820863004,153.80859375,0.00386099612318
0.0253,0.0513076782227,0.049182503783,154.418945312,0.00363440896599
0.0254,-0.228118896484,0.0313518574217,155.029296875,0.00452189800702
0.0255,-0.513648986816,0.0135522749042,155.639648438,0.00446432370171
0.0256,-0.802230834961,-0.00424730761324,156.25,0.00202894245972
0.0257,-1.07555389404,-0.0225439116321,156.860351562,0.000619682129209
0.0258,-1.35498046875,-0.0393805149906,157.470703125,0.000884104088822
0.0259,-1.62220001221,-0.0566830760067,158.081054688,0.00125589743352
0.026,-1.87740325928,-0.0749796800255,158.69140625,0.00296402718856
0.0261,-2.12936401367,-0.0913192618827,159.301757812,0.00438921626213
0.0262,-2.36625671387,-0.107130758395,159.912109375,0.00238389156781
0.0263,-2.59113311768,-0.123967361753,160.522460938,0.000750919485982
0.0264,-2.80055999756,-0.138287793761,161.1328125,0.000895580095404
0.0265,-2.99510955811,-0.152142268112,161.743164062,0.000942134289257
0.0266,-3.17420959473,-0.165002699459,162.353515625,0.00234354578673
0.0267,-3.33824157715,-0.177366109306,162.963867188,0.00219783150601
0.0268,-3.48091125488,-0.188766539993,163.57421875,0.000753904921345
0.0269,-3.61766815186,-0.199141863834,164.184570312,0.00167237237023
0.027,-3.73001098633,-0.207560165513,164.794921875,0.00266755063905
0.0271,-3.82118225098,-0.215978467193,165.405273438,0.00285420118556
0.0272,-3.90319824219,-0.222408682866,166.015625,0.0016620678343
0.0273,-3.95183563232,-0.227347834036,166.625976562,0.00140061417102
0.0274,-3.98826599121,-0.231292942203,167.236328125,0.00218061607195
0.0275,-4.0002822876,-0.234772092713,167.846679688,0.00253590557354
0.0276,-3.99131774902,-0.236232093373,168.45703125,0.0019030692819
0.0277,-3.96385192871,-0.236232093373,169.067382812,0.00203417575924
0.0278,-3.91826629639,-0.235735071872,169.677734375,0.00331377790411
0.0279,-3.8423538208,-0.232784006707,170.288085938,0.00286774614473
0.028,-3.75442504883,-0.229801877699,170.8984375,0.00175397505517
0.0281,-3.65104675293,-0.224862726529,171.508789062,0.000903376225499
0.0282,-3.52344512939,-0.218929532357,172.119140625,4.96518760291E-05
0.0283,-3.37467193604,-0.21150527368,172.729492188,0.000270495688151
0.0284,-3.21674346924,-0.203118035845,173.33984375,0.000412429224861
0.0285,-3.04355621338,-0.193208669662,173.950195312,0.00127920136706
0.0286,-2.8491973877,-0.182336324319,174.560546875,0.0018890885506
0.0287,-2.64263153076,-0.170935893632,175.170898438,0.00171089354821
0.0288,-2.42404937744,-0.158075462284,175.78125,0.000725730077661
0.0289,-2.19020843506,-0.145215030936,176.391601562,0.000720352859527
0.029,-1.94416046143,-0.13139162043,177.001953125,0.00108059440479
0.0291,-1.69506072998,-0.115052038573,177.612304688,0.000780250517694
