"Latest: Time (s)","Latest: Potential (V)","Latest: Current (A)","FFT: Time - Frequency (Hz)","FFT: Potential - FFT"
0,-3.33518981934,-0.217438467853,0,0.0216634194284
0.0001,-3.12557220459,-0.209548251519,0.6103515625,0.230427585351
0.0002,-2.89173126221,-0.200135906837,1.220703125,0.24377503656
0.0003,-2.63061523438,-0.188766539993,1.8310546875,0.0987315320813
0.0004,-2.34813690186,-0.174912065643,2.44140625,0.00737807218998
0.0005,-2.04734802246,-0.159566526788,3.0517578125,0.0105346374992
0.0006,-1.73149108887,-0.143755030276,3.662109375,0.0117102008079
0.0007,-1.39446258545,-0.126421405416,4.2724609375,0.0105317580597
0.0008,-1.05419158936,-0.106633736893,4.8828125,0.00565578372678
0.0009,-0.698852539062,-0.0868460683705,5.4931640625,0.00840611703831
0.001,-0.340461730957,-0.0660954206887,6.103515625,0.0084454455355
0.0011,0.0148773193359,-0.0448166876618,6.7138671875,0.00556389318451
0.0012,0.367164611816,-0.0230409331334,7.32421875,0.00647694581197
0.0013,0.725555419922,-0.00129624244892,7.9345703125,0.00982428925602
0.0014,1.07479095459,0.0199824905781,8.544921875,0.0117291204301
0.0015,1.41506195068,0.0422552666078,9.1552734375,0.0113764340885
0.0016,1.74617767334,0.0639999572923,9.765625,0.00840330970308
0.0017,2.05898284912,0.0857757118206,10.3759765625,0.00386493209537
0.0018,2.35652923584,0.106557423346,10.986328125,0.00216590308833
0.0019,2.62985229492,0.126345091869,11.5966796875,0.00289353340368
0.002,2.88505554199,0.146629781893,12.20703125,0.00292723800295
0.0021,3.10668945312,0.164429364411,12.8173828125,0.00260282816786
0.0022,3.31020355225,0.180737882424,13.427734375,0.00299818319327
0.0023,3.48339080811,0.19658044278,14.0380859375,0.00335929746896
0.0024,3.62911224365,0.21043491713,14.6484375,0.00248861137164
0.0025,3.74164581299,0.222301305475,15.2587890625,0.0014455383394
0.0026,3.82347106934,0.232676629316,15.869140625,0.00254585149193
0.0027,3.87210845947,0.241591952497,16.4794921875,0.00382890356841
0.0028,3.89347076416,0.248022168171,17.08984375,0.00455600032281
0.0029,3.87210845947,0.252464297839,17.7001953125,0.00505285175993
0.003,3.82347106934,0.255446426847,18.310546875,0.00523197751744
0.0031,3.74755859375,0.25644046985,18.9208984375,0.00431373232842
0.0032,3.63521575928,0.254949405346,19.53125,0.00308408590826
0.0033,3.48644256592,0.251967276338,20.1416015625,0.00349069978257
0.0034,3.31935882568,0.246531103667,20.751953125,0.00405821784341
0.0035,3.12194824219,0.239603866492,21.3623046875,0.00478086711025
0.0036,2.89726257324,0.230719607155,21.97265625,0.00541670364885
0.0037,2.64511108398,0.219816197969,22.5830078125,0.00555410019801
0.0038,2.37483978271,0.206955766621,23.193359375,0.00488457062988
0.0039,2.07405090332,0.192635334613,23.8037109375,0.00309219408383
0.004,1.76429748535,0.177289795758,24.4140625,0.000779531597102
0.0041,1.4331817627,0.159987234742,25.0244140625,0.000481277090286
0.0042,1.09004974365,0.14165956688,25.634765625,0.00165084266018
0.0043,0.743865966797,0.121871898357,26.2451171875,0.00514779924814
0.0044,0.391578674316,0.101618272176,26.85546875,0.00783498454813
0.0045,0.0301361083984,0.0808365606508,27.4658203125,0.00709699048305
0.0046,-0.322341918945,0.0590608061225,28.076171875,0.00369125823495
0.0047,-0.683784484863,0.0372850515942,28.6865234375,0.00231253168329
0.0048,-1.04503631592,0.0150433394083,29.296875,0.00208401100535
0.0049,-1.38835906982,-0.0072294366214,29.9072265625,0.00173248648782
0.005,-1.72538757324,-0.0284771058045,30.517578125,0.00495464303087
0.0051,-2.04734802246,-0.0497558388315,31.1279296875,0.00719902608517
0.0052,-2.34813690186,-0.0715315933599,31.73828125,0.00701526676257
0.0053,-2.63061523438,-0.0923133048855,32.3486328125,0.00490016621092
0.0054,-2.89783477783,-0.111603951907,32.958984375,0.00362870718729
0.0055,-3.1286239624,-0.13139162043,33.5693359375,0.0042217490039
0.0056,-3.33824157715,-0.148197159945,34.1796875,0.00361732419984
0.0057,-3.52649688721,-0.1640397203,34.7900390625,0.00173691262816
0.0058,-3.67832183838,-0.178360152308,35.400390625,0.000368459927948
0.0059,-3.80592346191,-0.192214626659,36.0107421875,0.00102122884575
0.006,-3.90930175781,-0.203118035845,36.62109375,0.00155046272836
0.0061,-3.96995544434,-0.212499316683,37.2314453125,0.0020053930939
0.0062,-4.0002822876,-0.21992357536,37.841796875,0.00286377610013
0.0063,-4.00333404541,-0.225359748031,38.4521484375,0.00328717541464
0.0064,-3.96690368652,-0.229304856198,39.0625,0.00267113925264
0.0065,-3.90319824219,-0.230795920702,39.6728515625,0.00242355741747
0.0066,-3.79981994629,-0.230298899201,40.283203125,0.00354964423706
0.0067,-3.67240905762,-0.227844855538,40.8935546875,0.00431240431471
0.0068,-3.51448059082,-0.223868683527,41.50390625,0.00369833631043
0.0069,-3.32908630371,-0.217438467853,42.1142578125,0.00252683452196
0.007,-3.11660766602,-0.209051230017,42.724609375,0.00193228900431
0.0071,-2.88257598877,-0.199638885335,43.3349609375,0.0015989972086
0.0072,-2.61840820312,-0.18777249699,43.9453125,0.00108418898081
0.0073,-2.33898162842,-0.173421001139,44.5556640625,0.00149428834233
0.0074,-2.03838348389,-0.159069505287,45.166015625,0.00222971532792
0.0075,-1.71947479248,-0.143258008775,45.7763671875,0.0019247979095
0.0076,-1.38530731201,-0.125427362414,46.38671875,0.00357594757184
0.0077,-1.04503631592,-0.105670757735,46.9970703125,0.00675866606704
0.0078,-0.689697265625,-0.0858830892116,47.607421875,0.00840609364459
0.0079,-0.328254699707,-0.0655983991874,48.2177734375,0.00745082425335
0.008,0.0240325927734,-0.0433256231577,48.828125,0.00462592944723
0.0081,0.379371643066,-0.0220468901307,49.4384765625,0.00220480989108
0.0082,0.734710693359,-0.000302199446196,50.048828125,0.00265234934822
0.0083,1.08699798584,0.0209765335808,50.6591796875,0.00330200379034
0.0084,1.42726898193,0.043715267268,51.26953125,0.00380235498978
0.0085,1.75514221191,0.064994000295,51.8798828125,0.00463943012698
0.0086,2.0679473877,0.0872667763247,52.490234375,0.00501167610135
0.0087,2.36873626709,0.107551466349,53.1005859375,0.00442420393519
0.0088,2.63900756836,0.127836156373,53.7109375,0.00269679568043
0.0089,2.89115905762,0.147126803395,54.3212890625,0.000851490332033
0.009,3.11584472656,0.165423407414,54.931640625,0.00240772291166
0.0091,3.31630706787,0.182228946928,55.5419921875,0.00345270482594
0.0092,3.48644256592,0.198071507284,56.15234375,0.00348486408558
0.0093,3.63521575928,0.211428960133,56.7626953125,0.00301846962185
0.0094,3.74450683594,0.223295348478,57.373046875,0.0027798467085
0.0095,3.82347106934,0.233670672319,57.9833984375,0.00190873987327
0.0096,3.87210845947,0.2425859955,58.59375,0.0031811673569
0.0097,3.89347076416,0.248519189672,59.2041015625,0.0114427800618
0.0098,3.87210845947,0.253458340842,59.814453125,0.0178940256632
0.0099,3.82347106934,0.255943448349,60.4248046875,0.0171279034419
0.01,3.74164581299,0.256937491351,61.03515625,0.0106137990208
0.0101,3.62911224365,0.255446426847,61.6455078125,0.00466595315462
0.0102,3.48339080811,0.251967276338,62.255859375,0.00304320301019
0.0103,3.31325531006,0.247028125168,62.8662109375,0.00418349950104
0.0104,3.11584472656,0.239603866492,63.4765625,0.00599247877771
0.0105,2.8881072998,0.230719607155,64.0869140625,0.00586953310157
0.0106,2.63595581055,0.219816197969,64.697265625,0.00410863796091
0.0107,2.36568450928,0.206955766621,65.3076171875,0.00223752115515
0.0108,2.06508636475,0.192635334613,65.91796875,0.00107858588503
0.0109,1.75514221191,0.176792774257,66.5283203125,0.00106891857889
0.011,1.42116546631,0.159987234742,67.138671875,0.00196820224041
0.0111,1.08089447021,0.14165956688,67.7490234375,0.00333022027814
0.0112,0.731658935547,0.121405940699,68.359375,0.00446624655857
0.0113,0.345993041992,0.100127207672,68.9697265625,0.00488525605798
0.0114,0.0179290771484,0.0808365606508,69.580078125,0.00496409279121
0.0115,-0.337409973145,0.0585637846211,70.1904296875,0.0052573104582
0.0116,-0.69580078125,0.0368190939366,70.80078125,0.00511141341838
0.0117,-1.05113983154,0.0145463179069,71.4111328125,0.0040975452846
0.0118,-1.39751434326,-0.0072294366214,72.021484375,0.00301056831649
0.0119,-1.73454284668,-0.0289741273059,72.6318359375,0.00303345410499
0.012,-2.0565032959,-0.0507498818342,73.2421875,0.00378490500119
0.0121,-2.36015319824,-0.0725256363626,73.8525390625,0.00462507322159
0.0122,-2.63957977295,-0.0923133048855,74.462890625,0.00540226465639
0.0123,-2.90393829346,-0.112100973408,75.0732421875,0.00489517793333
0.0124,-3.13472747803,-0.13139162043,75.68359375,0.00361367023103
0.0125,-3.34129333496,-0.148694181446,76.2939453125,0.00290302370566
0.0126,-3.52954864502,-0.163542698799,76.904296875,0.00238733311301
0.0127,-3.684425354,-0.178360152308,77.5146484375,0.00164746390718
0.0128,-3.80897521973,-0.192214626659,78.125,0.00158987846708
0.0129,-3.91235351562,-0.203118035845,78.7353515625,0.00188829475598
0.013,-3.97300720215,-0.212499316683,79.345703125,0.00132103408332
0.0131,-4.00333404541,-0.21992357536,79.9560546875,0.00172100311494
0.0132,-4.00333404541,-0.225359748031,80.56640625,0.00353695375173
0.0133,-3.96995544434,-0.22883889854,81.1767578125,0.0033853800968
0.0134,-3.90319824219,-0.230795920702,81.787109375,0.00237983729042
0.0135,-3.79676818848,-0.230298899201,82.3974609375,0.00223367848449
0.0136,-3.6693572998,-0.227844855538,83.0078125,0.00149045245854
0.0137,-3.51142883301,-0.223371662025,83.6181640625,0.00210365695708
0.0138,-3.31993103027,-0.216941446351,84.228515625,0.00369868534452
0.0139,-3.10440063477,-0.209051230017,84.8388671875,0.00396521930164
0.014,-2.8736114502,-0.199141863834,85.44921875,0.0032633653041
0.0141,-2.60925292969,-0.186778453988,86.0595703125,0.00245741669559
0.0142,-2.32372283936,-0.172923979637,86.669921875,0.00183928517629
0.0143,-2.02617645264,-0.158572483786,87.2802734375,0.000992078244659
0.0144,-1.70726776123,-0.141766944271,87.890625,0.000676533315749
0.0145,-1.37615203857,-0.124464383255,88.5009765625,0.000555570610566
0.0146,-1.03302001953,-0.105173736233,89.111328125,0.000635798854114
0.0147,-0.674629211426,-0.0848890462089,89.7216796875,0.000866282632456
0.0148,-0.31623840332,-0.0646043561846,90.33203125,0.000592166004756
0.0149,0.0391006469727,-0.0428286016563,90.9423828125,0.00195333848666
0.015,0.397491455078,-0.0215498686293,91.552734375,0.00240223449238
0.0151,0.749969482422,0.000691843556524,92.1630859375,0.00123916788558
0.0152,1.09920501709,0.0224675980849,92.7734375,0.00146886199714
0.0153,1.43623352051,0.0442122887694,93.3837890625,0.00277751054542
0.0154,1.76734924316,0.0659880432977,93.994140625,0.00382413758118
0.0155,2.08015441895,0.0882608193274,94.6044921875,0.00522793065997
0.0156,2.37483978271,0.109011467009,95.21484375,0.00593297994107
0.0157,2.6481628418,0.128799135532,95.8251953125,0.00481802301323
0.0158,2.90031433105,0.148089782554,96.435546875,0.00311811896792
0.0159,3.125,0.166417450416,97.0458984375,0.001407268555
0.016,3.3224105835,0.18272596843,97.65625,0.00281568559349
0.0161,3.49254608154,0.198568528785,98.2666015625,0.00292725986473
0.0162,3.63826751709,0.212423003136,98.876953125,0.00286366180914
0.0163,3.74755859375,0.223792369979,99.4873046875,0.00294113789821
0.0164,3.82347106934,0.23416769382,100.09765625,0.00196212279312
0.0165,3.87210845947,0.2425859955,100.708007812,0.00176479823112
0.0166,3.89347076416,0.249016211174,101.318359375,0.00241505654382
0.0167,3.86905670166,0.253955362343,101.928710938,0.00198810801264
0.0168,3.82061004639,0.25644046985,102.5390625,0.00122852506569
0.0169,3.74164581299,0.25644046985,103.149414062,0.00177706430665
0.017,3.62606048584,0.255943448349,103.759765625,0.00123846323136
0.0171,3.47728729248,0.252464297839,104.370117188,0.00179986260577
0.0172,3.30715179443,0.247028125168,104.98046875,0.00293992783369
0.0173,3.10668945312,0.23910684499,105.590820312,0.00233080999791
0.0174,2.88200378418,0.230222585653,106.201171875,0.00122239608978
0.0175,2.62393951416,0.219816197969,106.811523438,0.00150694341142
0.0176,2.35347747803,0.206955766621,107.421875,0.00280665932766
0.0177,2.05593109131,0.192138313112,108.032226562,0.00242413180649
0.0178,1.74312591553,0.176792774257,108.642578125,0.00146070966433
0.0179,1.40895843506,0.159490213241,109.252929688,0.00124451447042
0.018,1.06582641602,0.141162545378,109.86328125,0.00162495065426
0.0181,0.719451904297,0.121405940699,110.473632812,0.00148201273709
0.0182,0.361061096191,0.101121250675,111.083984375,0.000834079802252
0.0183,0.00572204589844,0.0803395391495,111.694335938,0.00203514939003
0.0184,-0.349617004395,0.0580667631198,112.3046875,0.00310012584209
0.0185,-0.7080078125,0.0363220724353,112.915039062,0.00245190669753
0.0186,-1.06639862061,0.0145463179069,113.525390625,0.00233834314487
0.0187,-1.41258239746,-0.00772645812276,114.135742188,0.00209954779716
0.0188,-1.74369812012,-0.0294711488073,114.74609375,0.00244860855497
0.0189,-2.06871032715,-0.0507498818342,115.356445312,0.00165528806006
0.019,-2.36930847168,-0.0725256363626,115.966796875,0.00330689887224
0.0191,-2.6517868042,-0.0957613915512,116.577148438,0.00501726328413
0.0192,-2.91614532471,-0.112100973408,117.1875,0.00366684872921
0.0193,-3.14388275146,-0.13139162043,117.797851562,0.00208865774678
0.0194,-3.35636138916,-0.149191202947,118.408203125,0.00371454696087
0.0195,-3.53870391846,-0.164505677958,119.018554688,0.00270110571957
0.0196,-3.68747711182,-0.17885717381,119.62890625,0.0040344989354
0.0197,-3.81507873535,-0.19271164816,120.239257812,0.003644854308
0.0198,-3.91521453857,-0.204081015004,120.849609375,0.00251487562597
0.0199,-3.97605895996,-0.212499316683,121.459960938,0.00314273124348
0.02,-4.00638580322,-0.21992357536,122.0703125,0.00122607140259
0.0201,-4.00638580322,-0.224862726529,122.680664062,0.00362684864162
0.0202,-3.96690368652,-0.22883889854,123.291015625,0.0039762907281
0.0203,-3.90014648438,-0.230795920702,123.901367188,0.00211638160545
0.0204,-3.79390716553,-0.229801877699,124.51171875,0.00947803283976
0.0205,-3.66325378418,-0.227347834036,125.122070312,0.000795462401664
0.0206,-3.50532531738,-0.223371662025,125.732421875,0.00383714511025
0.0207,-3.31687927246,-0.216941446351,126.342773438,0.00655857392722
0.0208,-3.10440063477,-0.208554208516,126.953125,0.000419414360502
0.0209,-2.86750793457,-0.198644842333,127.563476562,0.0123858150994
0.021,-2.60009765625,-0.186778453988,128.173828125,0.0028055253299
0.0211,-2.31475830078,-0.172426958136,128.784179688,0.00334543809854
0.0212,-2.0170211792,-0.157609504627,129.39453125,0.0154792585554
0.0213,-1.70116424561,-0.141269922769,130.004882812,0.000438205663964
0.0214,-1.36394500732,-0.123967361753,130.615234375,0.0190127230791
0.0215,-1.02386474609,-0.10417969323,131.225585938,0.0072619850054
0.0216,-0.665473937988,-0.0843920247075,131.8359375,0.0065775722323
0.0217,-0.307083129883,-0.0636103131819,132.446289062,0.0309868222123
0.0218,0.0482559204102,-0.0428286016563,133.056640625,0.00303348674258
0.0219,0.406646728516,-0.0205868894705,133.666992188,0.0233749468094
0.022,0.758934020996,0.00168588655924,134.27734375,0.0365643325601
0.0221,1.10836029053,0.0234616410876,134.887695312,0.0205837263588
0.0222,1.44844055176,0.0452063317721,135.498046875,0.0580051491345
0.0223,1.7765045166,0.0664850647991,136.108398438,0.0245979151172
0.0224,2.08930969238,0.0887578408287,136.71875,0.0686807348882
0.0225,2.3868560791,0.109508488511,137.329101562,0.0922001643503
0.0226,2.65731811523,0.129296157033,137.939453125,0.0206225865986
0.0227,2.90927886963,0.148586804055,138.549804688,0.191353298103
0.0228,3.13110351562,0.166417450416,139.16015625,0.121061507491
0.0229,3.33156585693,0.18272596843,139.770507812,0.237603300994
0.023,3.50456237793,0.199065550287,140.380859375,0.4812022389
0.0231,3.6413192749,0.212423003136,140.991210938,0.0128801028632
0.0232,3.75061035156,0.224289391481,141.6015625,1.30659172059
0.0233,3.83567810059,0.235161736823,142.211914062,1.61488305518
0.0234,3.87210845947,0.243083017001,142.822265625,3.16937433565
0.0235,3.89347076416,0.249513232675,143.432617188,21.1672295095
0.0236,3.86905670166,0.253955362343,144.04296875,82.3598685993
0.0237,3.81755828857,0.25644046985,144.653320312,142.848461397
0.0238,3.73554229736,0.256937491351,145.263671875,147.42690234
0.0239,3.62014770508,0.254949405346,145.874023438,91.5444258626
0.024,3.47423553467,0.251967276338,146.484375,27.2978119715
0.0241,3.30123901367,0.247028125168,147.094726562,2.06502031047
0.0242,3.10077667236,0.239603866492,147.705078125,2.27863266465
0.0243,2.87284851074,0.230222585653,148.315429688,1.24372800133
0.0244,2.61783599854,0.219319176467,148.92578125,0.192778728913
0.0245,2.34451293945,0.206955766621,149.536132812,0.54979007796
0.0246,2.04372406006,0.19164129161,150.146484375,0.168399273823
0.0247,1.73091888428,0.175798731254,150.756835938,0.182929931721
0.0248,1.39980316162,0.15899319174,151.3671875,0.177740829872
0.0249,1.05667114258,0.140696587721,151.977539062,0.00908537449858
0.025,0.70743560791,0.120908919198,152.587890625,0.1091689342
0.0251,0.349044799805,0.100127207672,153.198242188,0.0537425948045
0.0252,-0.00648498535156,0.0798425176481,153.80859375,0.0401732897453
0.0253,-0.361824035645,0.0575697416184,154.418945312,0.0590365966188
0.0254,-0.72021484375,0.0358250509339,155.029296875,0.00385893085556
0.0255,-1.07860565186,0.0130552534029,155.639648438,0.0361571859692
0.0256,-1.41868591309,-0.00822347962412,156.25,0.0244234817502
0.0257,-1.75590515137,-0.0299681703086,156.860351562,0.0112333458201
0.0258,-2.07786560059,-0.051743924837,157.470703125,0.0263653996562
0.0259,-2.37846374512,-0.0734886155215,158.081054688,0.00525652965243
0.026,-2.65789031982,-0.0942703270471,158.69140625,0.0153140202885
0.0261,-2.92205810547,-0.112566931066,159.301757812,0.0141300696839
0.0262,-3.1530380249,-0.132354599589,159.912109375,0.00356508114235
0.0263,-3.35941314697,-0.149688224449,160.522460938,0.0147304878332
0.0264,-3.54785919189,-0.165499720961,161.1328125,0.00272026222031
0.0265,-3.69663238525,-0.17885717381,161.743164062,0.00577766445527
0.0266,-3.81507873535,-0.19271164816,162.353515625,0.00892577880649
0.0267,-3.91521453857,-0.203118035845,162.963867188,0.000632955597485
0.0268,-3.97911071777,-0.212996338184,163.57421875,0.00813161083182
0.0269,-4.00638580322,-0.220420596861,164.184570312,0.00386321791961
0.027,-4.00333404541,-0.225359748031,164.794921875,0.00407175776268
0.0271,-3.96385192871,-0.22883889854,165.405273438,0.00548124858001
0.0272,-3.90014648438,-0.230298899201,166.015625,0.000942784911177
0.0273,-3.78475189209,-0.229801877699,166.625976562,0.00506031135657
0.0274,-3.66020202637,-0.227347834036,167.236328125,0.00230580987521
0.0275,-3.49617004395,-0.222874640524,167.846679688,0.00130002134861
0.0276,-3.3109664917,-0.21644442485,168.45703125,0.00372170928361
0.0277,-3.09524536133,-0.208057187015,169.067382812,0.00152455790544
0.0278,-2.85835266113,-0.198644842333,169.677734375,0.00381724541291
0.0279,-2.59113311768,-0.185784410985,170.288085938,0.00133380718364
0.028,-2.30865478516,-0.171929936635,170.8984375,0.000420592722571
0.0281,-2.00786590576,-0.157112483125,171.508789062,0.0033110644521
0.0282,-1.68895721436,-0.140772901268,172.119140625,0.000882261123743
0.0283,-1.35498046875,-0.123470340252,172.729492188,0.00233359002831
0.0284,-1.01165771484,-0.103682671729,173.33984375,0.00263989417674
0.0285,-0.650215148926,-0.0838950032062,173.950195312,0.00343669862386
0.0286,-0.29182434082,-0.0626162701792,174.560546875,0.00495388924245
0.0287,0.0604629516602,-0.0413375371522,175.170898438,0.00209776862939
0.0288,0.421905517578,-0.0195928464677,175.78125,0.000233464628793
0.0289,0.771141052246,0.0021829080606,176.391601562,0.00352165515917
0.029,1.12037658691,0.0239586625889,177.001953125,0.00364625151028
0.0291,1.4575958252,0.0462003747748,177.612304688,0.00329199508508
