"Latest: Time (s)","Latest: Potential (V)","Latest: Current (A)","FFT: Time - Frequency (Hz)","FFT: Potential - FFT"
0,-1.11808776855,-0.115549060074,0,0.0118556768945
0.0001,-1.15451812744,-0.116046081575,0.6103515625,3.72988623752
0.0002,-1.19705200195,-0.116543103077,1.220703125,3.92035794798
0.0003,-1.23653411865,-0.117040124578,1.8310546875,1.58678278925
0.0004,-1.27296447754,-0.117537146079,2.44140625,0.0907191346068
0.0005,-1.31244659424,-0.118034167581,3.0517578125,0.213828499622
0.0006,-1.34887695312,-0.118531189082,3.662109375,0.0638092518902
0.0007,-1.38835906982,-0.11899714674,4.2724609375,0.0626765936437
0.0008,-1.42478942871,-0.119494168241,4.8828125,0.0393038290276
0.0009,-1.46427154541,-0.119991189742,5.4931640625,0.044103147167
0.001,-1.49765014648,-0.119991189742,6.103515625,0.0400678670909
0.0011,-1.53408050537,-0.121979275748,6.7138671875,0.0380886523202
0.0012,-1.5796661377,-0.121979275748,7.32421875,0.077001782461
0.0013,-1.61304473877,-0.121979275748,7.9345703125,0.0155777283932
0.0014,-1.65252685547,-0.122476297249,8.544921875,0.113386471221
0.0015,-1.68895721436,-0.123470340252,9.1552734375,0.0896641225174
0.0016,-1.72233581543,-0.123470340252,9.765625,0.143024778427
0.0017,-1.75895690918,-0.123967361753,10.3759765625,0.268497247695
0.0018,-1.79843902588,-0.123967361753,10.986328125,0.0140185193456
0.0019,-1.82876586914,-0.123967361753,11.5966796875,0.584919852272
0.002,-1.86519622803,-0.124464383255,12.20703125,0.599022514969
0.0021,-1.90467834473,-0.124464383255,12.8173828125,0.930223429867
0.0022,-1.9380569458,-0.124961404756,13.427734375,3.35571438802
0.0023,-1.97448730469,-0.125427362414,14.0380859375,1.0614101921
0.0024,-2.01091766357,-0.125427362414,14.6484375,39.7546093174
0.0025,-2.04429626465,-0.124961404756,15.2587890625,108.151272933
0.0026,-2.08072662354,-0.125427362414,15.869140625,154.502961222
0.0027,-2.12020874023,-0.125427362414,16.4794921875,134.363677592
0.0028,-2.14767456055,-0.125427362414,17.08984375,67.6428306331
0.0029,-2.18410491943,-0.125924383915,17.7001953125,12.4878243085
0.003,-2.21748352051,-0.125427362414,18.310546875,4.10558770173
0.0031,-2.24781036377,-0.125924383915,18.9208984375,0.55227623517
0.0032,-2.28118896484,-0.125924383915,19.53125,1.21918745485
0.0033,-2.31475830078,-0.125924383915,20.1416015625,0.320861630022
0.0034,-2.35424041748,-0.125924383915,20.751953125,0.338688107493
0.0035,-2.38456726074,-0.125924383915,21.3623046875,0.305618011606
0.0036,-2.41794586182,-0.125924383915,21.97265625,0.024167932345
0.0037,-2.44827270508,-0.125427362414,22.5830078125,0.169053789827
0.0038,-2.48165130615,-0.125924383915,23.193359375,0.0782569557133
0.0039,-2.51522064209,-0.125924383915,23.8037109375,0.0606560900357
0.004,-2.54249572754,-0.125427362414,24.4140625,0.0824650844091
0.0041,-2.57892608643,-0.125427362414,25.0244140625,0.00424295303697
0.0042,-2.60620117188,-0.125924383915,25.634765625,0.0501909387028
0.0043,-2.63366699219,-0.125427362414,26.2451171875,0.0314132273013
0.0044,-2.66704559326,-0.125427362414,26.85546875,0.0160783183816
0.0045,-2.70042419434,-0.125427362414,27.4658203125,0.0336704249351
0.0046,-2.7307510376,-0.124961404756,28.076171875,0.00680631138754
0.0047,-2.76412963867,-0.124961404756,28.6865234375,0.0211152976198
0.0048,-2.79159545898,-0.124961404756,29.296875,0.0170008138672
0.0049,-2.81581878662,-0.124464383255,29.9072265625,0.00588324519534
0.005,-2.84614562988,-0.124464383255,30.517578125,0.0247476644328
0.0051,-2.87666320801,-0.123967361753,31.1279296875,0.0274464792547
0.0052,-2.90393829346,-0.123967361753,31.73828125,0.0415296107597
0.0053,-2.93121337891,-0.123967361753,32.3486328125,0.0537970573687
0.0054,-2.95848846436,-0.123470340252,32.958984375,0.0255063719985
0.0055,-2.98595428467,-0.123470340252,33.5693359375,0.00578400884228
0.0056,-3.01628112793,-0.122973318751,34.1796875,0.00409993449893
0.0057,-3.04050445557,-0.122973318751,34.7900390625,0.00663590932025
0.0058,-3.06491851807,-0.121979275748,35.400390625,0.00326722614801
0.0059,-3.09219360352,-0.121979275748,36.0107421875,0.00318784042273
0.006,-3.11946868896,-0.119991189742,36.62109375,0.00719732666744
0.0061,-3.14388275146,-0.119991189742,37.2314453125,0.00200626108334
0.0062,-3.1681060791,-0.119494168241,37.841796875,0.00282772130472
0.0063,-3.19843292236,-0.11899714674,38.4521484375,0.00298674916321
0.0064,-3.21979522705,-0.118531189082,39.0625,0.00338067258276
0.0065,-3.24096679688,-0.118034167581,39.6728515625,0.0049195841291
0.0066,-3.26843261719,-0.118034167581,40.283203125,0.00212421588639
0.0067,-3.28960418701,-0.117040124578,40.8935546875,0.00236187547846
0.0068,-3.31401824951,-0.117040124578,41.50390625,0.00313557082909
0.0069,-3.33824157715,-0.116543103077,42.1142578125,0.00164517196737
0.007,-3.35636138916,-0.116046081575,42.724609375,0.00154717682173
0.0071,-3.38382720947,-0.115549060074,43.3349609375,0.00207623469763
0.0072,-3.4049987793,-0.115052038573,43.9453125,0.000232922162782
0.0073,-3.42636108398,-0.114555017071,44.5556640625,0.0022459161484
0.0074,-3.444480896,-0.11405799557,45.166015625,0.00233165012686
0.0075,-3.4688949585,-0.113560974069,45.7763671875,0.00342967851322
0.0076,-3.48701477051,-0.113063952567,46.38671875,0.00456379511126
0.0077,-3.51448059082,-0.113063952567,46.9970703125,0.0161368662924
0.0078,-3.53260040283,-0.112100973408,47.607421875,0.027641679439
0.0079,-3.55396270752,-0.111106930406,48.2177734375,0.0312957681742
0.008,-3.57208251953,-0.110609908904,48.828125,0.0201367646896
0.0081,-3.59344482422,-0.109615865902,49.4384765625,0.00520060870229
0.0082,-3.60851287842,-0.109615865902,50.048828125,0.00311586810142
0.0083,-3.62682342529,-0.1091188444,50.6591796875,0.00277709428645
0.0084,-3.64799499512,-0.108124801397,51.26953125,0.00355637458364
0.0085,-3.66020202637,-0.107627779896,51.8798828125,0.00294670140992
0.0086,-3.68137359619,-0.106633736893,52.490234375,0.00170668750075
0.0087,-3.69968414307,-0.106136715392,53.1005859375,0.00203086047704
0.0088,-3.71189117432,-0.105670757735,53.7109375,0.00255279590278
0.0089,-3.73001098633,-0.104676714732,54.3212890625,0.0033775771082
0.009,-3.74526977539,-0.103682671729,54.931640625,0.00271123949795
0.0091,-3.76033782959,-0.103185650228,55.5419921875,0.00201322738948
0.0092,-3.77254486084,-0.102688628726,56.15234375,0.00166120074138
0.0093,-3.79085540771,-0.102191607225,56.7626953125,0.00176502966136
0.0094,-3.80592346191,-0.101197564222,57.373046875,0.00255415445333
0.0095,-3.81813049316,-0.100700542721,57.9833984375,0.00190169996636
0.0096,-3.83338928223,-0.0997064997182,58.59375,0.00319707702713
0.0097,-3.8423538208,-0.0987435205593,59.2041015625,0.0131362805433
0.0098,-3.85761260986,-0.098246499058,59.814453125,0.0210754724005
0.0099,-3.86981964111,-0.0972524560552,60.4248046875,0.0193561309272
0.01,-3.87878417969,-0.0962584130525,61.03515625,0.010605871311
0.0101,-3.90319824219,-0.0957613915512,61.6455078125,0.0025208181235
0.0102,-3.91521453857,-0.0947673485484,62.255859375,0.00415542382516
0.0103,-3.9213180542,-0.0942703270471,62.8662109375,0.0140329530528
0.0104,-3.93047332764,-0.0932762840444,63.4765625,0.0263731811674
0.0105,-3.94268035889,-0.0923133048855,64.0869140625,0.0317285292778
0.0106,-3.95183563232,-0.0918162833841,64.697265625,0.0234343093763
0.0107,-3.96385192871,-0.09032521888,65.3076171875,0.00915457022429
0.0108,-3.97300720215,-0.0898281973787,65.91796875,0.00160826301805
0.0109,-3.97911071777,-0.0883371328746,66.5283203125,0.000898054493779
0.011,-3.9852142334,-0.0883371328746,67.138671875,0.00151172719331
0.0111,-3.99417877197,-0.0868460683705,67.7490234375,0.001501403104
0.0112,-4.0002822876,-0.0858830892116,68.359375,0.00172274049969
0.0113,-4.00943756104,-0.0853860677103,68.9697265625,0.00149537059817
0.0114,-4.01859283447,-0.0843920247075,69.580078125,0.000867809528917
0.0115,-4.02164459229,-0.0829009602035,70.1904296875,0.000888699068019
0.0116,-4.0246963501,-0.0824039387021,70.80078125,0.000969235585359
0.0117,-4.03366088867,-0.0814098956994,71.4111328125,0.00129057963851
0.0118,-4.03366088867,-0.0799188311953,72.021484375,0.00165635475269
0.0119,-4.0397644043,-0.0784588305351,72.6318359375,0.00203014094268
0.012,-4.04891967773,-0.0774647875323,73.2421875,0.00174562369889
0.0121,-4.05197143555,-0.076967766031,73.8525390625,0.00128023904456
0.0122,-4.05197143555,-0.0754767015269,74.462890625,0.000872993335079
0.0123,-4.05807495117,-0.0744826585242,75.0732421875,0.000682309862821
0.0124,-4.05807495117,-0.0739856370228,75.68359375,0.00153673561224
0.0125,-4.05807495117,-0.0730226578639,76.2939453125,0.00127426335979
0.0126,-4.0641784668,-0.0715315933599,76.904296875,0.000923720870877
0.0127,-4.06112670898,-0.0700405288558,77.5146484375,0.000683781661469
0.0128,-4.0641784668,-0.0695435073544,78.125,0.000485923889357
0.0129,-4.0641784668,-0.0680524428503,78.7353515625,0.00277561253553
0.013,-4.0641784668,-0.0670583998476,79.345703125,0.00689637797074
0.0131,-4.0641784668,-0.0660954206887,79.9560546875,0.00932095157611
0.0132,-4.0641784668,-0.0646043561846,80.56640625,0.00720172209068
0.0133,-4.05807495117,-0.0641073346833,81.1767578125,0.00258636165706
0.0134,-4.05807495117,-0.0626162701792,81.787109375,0.00154355206376
0.0135,-4.06112670898,-0.0616222271765,82.3974609375,0.000950232732403
0.0136,-4.05502319336,-0.0601622265162,83.0078125,0.000522765918326
0.0137,-4.05197143555,-0.0596652050149,83.6181640625,0.000933806432657
0.0138,-4.05197143555,-0.0571800975081,84.228515625,0.00096128947461
0.0139,-4.04281616211,-0.055689033004,84.8388671875,0.00168908797721
0.014,-4.0397644043,-0.0546949900013,85.44921875,0.00251357804629
0.0141,-4.0397644043,-0.0537320108424,86.0595703125,0.00275780429762
0.0142,-4.03079986572,-0.0522409463383,86.669921875,0.00152615746697
0.0143,-4.02774810791,-0.0512469033356,87.2802734375,0.00096686366496
0.0144,-4.0246963501,-0.0502528603329,87.890625,0.00204520873459
0.0145,-4.01554107666,-0.0487617958288,88.5009765625,0.00194606718301
0.0146,-4.01248931885,-0.0473017951686,89.111328125,0.00174804322901
0.0147,-4.00638580322,-0.0463077521658,89.7216796875,0.00147218719405
0.0148,-3.99723052979,-0.0448166876618,90.33203125,0.00132653535324
0.0149,-3.98826599121,-0.0433256231577,90.9423828125,0.00176618957422
0.015,-3.98216247559,-0.042331580155,91.552734375,0.00205723509003
0.0151,-3.97300720215,-0.0408405156509,92.1630859375,0.00155632180315
0.0152,-3.96385192871,-0.0403745579933,92.7734375,0.000892766157205
0.0153,-3.95774841309,-0.0388834934893,93.3837890625,0.000439149356772
0.0154,-3.9457321167,-0.0373924289852,93.994140625,0.000966526207389
0.0155,-3.93657684326,-0.0363983859825,94.6044921875,0.00705045840611
0.0156,-3.92742156982,-0.0349073214784,95.21484375,0.0209766836234
0.0157,-3.91521453857,-0.0334473208181,95.8251953125,0.0325688761734
0.0158,-3.90319824219,-0.0324532778154,96.435546875,0.0303927265728
0.0159,-3.88488769531,-0.0309622133113,97.0458984375,0.0165791104356
0.016,-3.86981964111,-0.0294711488073,97.65625,0.00345859583558
0.0161,-3.86066436768,-0.0284771058045,98.2666015625,0.00145716473733
0.0162,-3.84845733643,-0.0270171051443,98.876953125,0.000925671449695
0.0163,-3.83625030518,-0.0260230621416,99.4873046875,0.00115188115138
0.0164,-3.82118225098,-0.0245319976375,100.09765625,0.00104630227865
0.0165,-3.80897521973,-0.0230409331334,100.708007812,0.00106666385936
0.0166,-3.79676818848,-0.0220468901307,101.318359375,0.00126266875352
0.0167,-3.78170013428,-0.0205868894705,101.928710938,0.00171173152778
0.0168,-3.76949310303,-0.0190958249664,102.5390625,0.0022629261523
0.0169,-3.75137329102,-0.0176047604623,103.149414062,0.00194937141922
0.017,-3.73306274414,-0.0166107174596,103.759765625,0.00130364277689
0.0171,-3.72085571289,-0.0151196529555,104.370117188,0.0018831770746
0.0172,-3.70273590088,-0.0136596522952,104.98046875,0.0017642758622
0.0173,-3.68747711182,-0.0126656092925,105.590820312,0.00142552410909
0.0174,-3.67240905762,-0.0111745447884,106.201171875,0.00168821115254
0.0175,-3.65104675293,-0.00968348028437,106.811523438,0.00183205197008
0.0176,-3.63292694092,-0.00868943728165,107.421875,0.00178743493833
0.0177,-3.61461639404,-0.0072294366214,108.032226562,0.00170990973754
0.0178,-3.59935760498,-0.00573837211732,108.642578125,0.00146967418166
0.0179,-3.57818603516,-0.0047443291146,109.252929688,0.00330669586903
0.018,-3.55987548828,-0.00275624310916,109.86328125,0.00353331210527
0.0181,-3.54175567627,-0.00129624244892,110.473632812,0.0113015439778
0.0182,-3.52039337158,-0.000799220947556,111.083984375,0.0452833023383
0.0183,-3.49617004395,0.00118886505788,111.694335938,0.0763897862736
0.0184,-3.47499847412,0.00267992956196,112.3046875,0.0759514473876
0.0185,-3.45363616943,0.00367397256468,112.915039062,0.0445352613443
0.0186,-3.43551635742,0.00513397322493,113.525390625,0.0112768080845
0.0187,-3.41110229492,0.00712205923037,114.135742188,0.00336477550532
0.0188,-3.3899307251,0.00811610223309,114.74609375,0.00283059173109
0.0189,-3.36856842041,0.00911014523581,115.356445312,0.00144363696901
0.019,-3.34739685059,0.0106012097399,115.966796875,0.00083546782204
0.0191,-3.32298278809,0.0120612104001,116.577148438,0.000742335166931
0.0192,-3.30181121826,0.0135522749042,117.1875,0.00224755333521
0.0193,-3.27453613281,0.0150433394083,117.797851562,0.00270683851908
0.0194,-3.25012207031,0.0165344039124,118.408203125,0.00226244834749
0.0195,-3.22589874268,0.0179944045726,119.018554688,0.0017606254095
0.0196,-3.20148468018,0.0189884475753,119.62890625,0.00197852205463
0.0197,-3.17726135254,0.0204795120794,120.239257812,0.00225518529497
0.0198,-3.1530380249,0.0214735550821,120.849609375,0.00172462726591
0.0199,-3.1286239624,0.0229646195862,121.459960938,0.000995006524682
0.02,-3.10440063477,0.0244246202465,122.0703125,0.00121446304364
0.0201,-3.07693481445,0.0259156847505,122.680664062,0.00160759277139
0.0202,-3.049659729,0.0274067492546,123.291015625,0.00114637140806
0.0203,-3.02543640137,0.0288978137587,123.901367188,0.000773636821229
0.0204,-2.99510955811,0.0298918567614,124.51171875,0.00257679422932
0.0205,-2.96764373779,0.0313518574217,125.122070312,0.00317778080411
0.0206,-2.94036865234,0.0328429219257,125.732421875,0.00253191093553
0.0207,-2.91309356689,0.0343339864298,126.342773438,0.00461865296198
0.0208,-2.88562774658,0.0358250509339,126.953125,0.0114699522817
0.0209,-2.85835266113,0.0368190939366,127.563476562,0.0183047956509
0.021,-2.82802581787,0.0382790945969,128.173828125,0.0190469742563
0.0211,-2.80361175537,0.039770159101,128.784179688,0.0127620054546
0.0212,-2.77328491211,0.0402671806023,129.39453125,0.00471059193847
0.0213,-2.74600982666,0.0422552666078,130.004882812,0.00278471255062
0.0214,-2.70652770996,0.043715267268,130.615234375,0.00423160786194
0.0215,-2.67906188965,0.0447093102707,131.225585938,0.00411508949071
0.0216,-2.64873504639,0.0462003747748,131.8359375,0.00407836311061
0.0217,-2.61840820312,0.0476914392789,132.446289062,0.00409314172105
0.0218,-2.58808135986,0.0486854822816,133.056640625,0.00360401140944
0.0219,-2.55470275879,0.0501454829418,133.666992188,0.00345802588354
0.022,-2.52418518066,0.0521335689473,134.27734375,0.00277619014133
0.0221,-2.4938583374,0.0526305904486,134.887695312,0.0042368241327
0.0222,-2.46353149414,0.0541216549527,135.498046875,0.00509273906459
0.0223,-2.43015289307,0.0556127194568,136.108398438,0.00311144271269
0.0224,-2.39677429199,0.0566067624595,136.71875,0.000766886932294
0.0225,-2.36320495605,0.0580667631198,137.329101562,0.000885672735128
0.0226,-2.32677459717,0.0600548491252,137.939453125,0.00198820799975
0.0227,-2.29034423828,0.0605518706266,138.549804688,0.00159264981346
0.0228,-2.26306915283,0.0620429351306,139.16015625,0.0029004840188
0.0229,-2.22969055176,0.0635029357909,139.770507812,0.00395630013139
0.023,-2.19631195068,0.0644969787936,140.380859375,0.00232116804279
0.0231,-2.15969085693,0.0654910217963,140.991210938,0.00180474291345
0.0232,-2.12631225586,0.0674791078018,141.6015625,0.00431831047607
0.0233,-2.0959854126,0.0694671938072,142.211914062,0.00589247731122
0.0234,-2.06260681152,0.0704301729661,142.822265625,0.00744744548251
0.0235,-2.02312469482,0.0719212374702,143.432617188,0.0103941921097
0.0236,-1.98669433594,0.0734123019743,144.04296875,0.0129015553315
0.0237,-1.95941925049,0.074406344977,144.653320312,0.0118995126967
0.0238,-1.91383361816,0.0758974094811,145.263671875,0.00806682112039
0.0239,-1.88045501709,0.0768603886399,145.874023438,0.00458873571148
0.024,-1.84688568115,0.078351453144,146.484375,0.00290262009942
0.0241,-1.81045532227,0.0793454961467,147.094726562,0.00243808274278
0.0242,-1.77402496338,0.0803395391495,147.705078125,0.00181502882391
0.0243,-1.73759460449,0.0818306036535,148.315429688,0.0010495426812
0.0244,-1.70116424561,0.0832906043138,148.92578125,0.000653536419093
0.0245,-1.66473388672,0.0842846473165,149.536132812,0.000718463625433
0.0246,-1.62830352783,0.0847816688179,150.146484375,0.00105871874703
0.0247,-1.58576965332,0.0862727333219,150.756835938,0.000807089394898
0.0248,-1.54933929443,0.087763797826,151.3671875,0.000768459216965
0.0249,-1.51290893555,0.0887578408287,151.977539062,0.00147600249572
0.025,-1.47647857666,0.0897208199876,152.587890625,0.0019409956857
0.0251,-1.44004821777,0.0912118844917,153.198242188,0.00174330223035
0.0252,-1.40056610107,0.0922059274944,153.80859375,0.000588573850505
0.0253,-1.36394500732,0.0931999704972,154.418945312,0.00124996795611
0.0254,-1.32751464844,0.0946910350012,155.029296875,0.00245461173349
0.0255,-1.28803253174,0.0956540141601,155.639648438,0.00272401654958
0.0256,-1.24855041504,0.0966480571628,156.25,0.00239718267781
0.0257,-1.20906829834,0.0976421001656,156.860351562,0.00209494894696
0.0258,-1.17263793945,0.0991331646696,157.470703125,0.00252313478419
0.0259,-1.13315582275,0.100127207672,158.081054688,0.00276153794295
0.026,-1.09367370605,0.101121250675,158.69140625,0.00169602301084
0.0261,-1.05724334717,0.102084229834,159.301757812,0.00188874670818
0.0262,-1.01470947266,0.103078272837,159.912109375,0.00354057620333
0.0263,-0.975227355957,0.104072315839,160.522460938,0.00353520568154
0.0264,-0.935745239258,0.105066358842,161.1328125,0.00205315297995
0.0265,-0.899314880371,0.106060401845,161.743164062,0.000404978230274
0.0266,-0.856781005859,0.107054444848,162.353515625,0.00168148662307
0.0267,-0.814247131348,0.108545509352,162.963867188,0.00251150382817
0.0268,-0.771713256836,0.109011467009,163.57421875,0.00203924368908
0.0269,-0.732231140137,0.110005510012,164.184570312,0.00081807816064
0.027,-0.69580078125,0.111496574516,164.794921875,0.000505595955538
0.0271,-0.656318664551,0.112490617519,165.405273438,0.00103517078082
0.0272,-0.613784790039,0.112490617519,166.015625,0.00187116153057
0.0273,-0.577354431152,0.113981682023,166.625976562,0.00245581743237
0.0274,-0.534820556641,0.115441682683,167.236328125,0.00231006105919
0.0275,-0.498390197754,0.115938704184,167.846679688,0.00208760737592
0.0276,-0.458908081055,0.116435725686,168.45703125,0.00219552738736
0.0277,-0.416374206543,0.11792679019,169.067382812,0.00183128178152
0.0278,-0.370788574219,0.118423811691,169.677734375,0.00123922423535
0.0279,-0.334358215332,0.119417854694,170.288085938,0.0013394408822
0.028,-0.294876098633,0.120411897697,170.8984375,0.00190935606141
0.0281,-0.255393981934,0.121405940699,171.508789062,0.00185701662178
0.0282,-0.215911865234,0.121871898357,172.119140625,0.00108820943038
0.0283,-0.176429748535,0.12286594136,172.729492188,0.0011107036227
0.0284,-0.133895874023,0.123362962861,173.33984375,0.00156671150271
0.0285,-0.0974655151367,0.124357005864,173.950195312,0.00133605756727
0.0286,-0.0579833984375,0.125351048866,174.560546875,0.000749938009409
0.0287,-0.00934600830078,0.126345091869,175.170898438,0.000779821578499
