"Latest: Time (s)","Latest: Potential (V)","Latest: Current (A)","FFT: Time - Frequency (Hz)","FFT: Potential - FFT"
0,-0.0883102416992,-0.0710345718585,0,0.00103008780949
0.0001,0.361061096191,-0.0636103131819,0.6103515625,0.341707204946
0.0002,0.810623168945,-0.0541979684999,1.220703125,0.363318722123
0.0003,1.24492645264,-0.0453137091631,1.8310546875,0.148403454326
0.0004,1.66110992432,-0.0354043429797,2.44140625,0.0107330622823
0.0005,2.05898284912,-0.0250290191389,3.0517578125,0.0204181164034
0.0006,2.42938995361,-0.014653695298,3.662109375,0.00921196031318
0.0007,2.76660919189,-0.00325326461052,4.2724609375,0.00538082214509
0.0008,3.06720733643,0.00811610223309,4.8828125,0.00320796661048
0.0009,3.32546234131,0.0194854690767,5.4931640625,0.00259155989739
0.001,3.54404449463,0.0308548359203,6.103515625,0.00406702385687
0.0011,3.71417999268,0.0417582451064,6.7138671875,0.00399228002457
0.0012,3.83567810059,0.0521335689473,7.32421875,0.00508728450016
0.0013,3.91464233398,0.0630369781334,7.9345703125,0.00896131488981
0.0014,3.93600463867,0.0734123019743,8.544921875,0.0130270809849
0.0015,3.90853881836,0.0823276251549,9.1552734375,0.0144053340372
0.0016,3.82347106934,0.090217841489,9.765625,0.0117465478359
0.0017,3.69911193848,0.0981391216669,10.3759765625,0.0070886587054
0.0018,3.5228729248,0.103575294338,10.986328125,0.00360220511553
0.0019,3.29818725586,0.108545509352,11.5966796875,0.00216073747309
0.002,3.03688049316,0.112490617519,12.20703125,0.0012716234152
0.0021,2.73323059082,0.114975725025,12.8173828125,0.000962223514958
0.0022,2.38990783691,0.115938704184,13.427734375,0.00147314916653
0.0023,2.01644897461,0.115441682683,14.0380859375,0.00257666008967
0.0024,1.61552429199,0.113981682023,14.6484375,0.00225660825881
0.0025,1.19323730469,0.110999553015,15.2587890625,0.00146840104679
0.0026,0.749969482422,0.107054444848,15.869140625,0.00288375550765
0.0027,0.30345916748,0.101121250675,16.4794921875,0.00447200824425
0.0028,-0.139999389648,0.0951880565026,17.08984375,0.00418002993865
0.0029,-0.589561462402,0.087763797826,17.7001953125,0.00276855811462
0.003,-1.03912353516,0.0793454961467,18.310546875,0.00367548823796
0.0031,-1.47037506104,0.0699331514647,18.9208984375,0.00595806027524
0.0032,-1.88331604004,0.0595578276238,19.53125,0.00812056154389
0.0033,-2.27527618408,0.0486854822816,20.1416015625,0.00888324888031
0.0034,-2.63957977295,0.0377820730955,20.751953125,0.00841510022863
0.0035,-2.96764373779,0.0264127062519,21.3623046875,0.00698316767928
0.0036,-3.25622558594,0.0150433394083,21.97265625,0.00477550853736
0.0037,-3.5083770752,0.00417099406604,22.5830078125,0.00405937648938
0.0038,-3.71189117432,-0.0072294366214,23.193359375,0.00465616797124
0.0039,-3.87287139893,-0.018598803465,23.8037109375,0.00577579335687
0.004,-3.99417877197,-0.0289741273059,24.4140625,0.00671036215379
0.0041,-4.05502319336,-0.0388834934893,25.0244140625,0.00574753348138
0.0042,-4.0641784668,-0.0492588173302,25.634765625,0.00278467831398
0.0043,-4.02774810791,-0.0576771190094,26.2451171875,0.000406323485549
0.0044,-3.93352508545,-0.0665924421901,26.85546875,0.00144884483449
0.0045,-3.78475189209,-0.0734886155215,27.4658203125,0.00204736176599
0.0046,-3.60240936279,-0.0794528735378,28.076171875,0.00354244798263
0.0047,-3.36246490479,-0.0833979817048,28.6865234375,0.00446488084418
0.0048,-3.09524536133,-0.0878401113732,29.296875,0.00444980214056
0.0049,-2.78549194336,-0.0893311758773,29.9072265625,0.00378485735411
0.005,-2.43625640869,-0.09032521888,30.517578125,0.00202221948306
0.0051,-2.0565032959,-0.0898281973787,31.1279296875,0.0013871284193
0.0052,-1.65252685547,-0.0873430898719,31.73828125,0.00446807812963
0.0053,-1.2243270874,-0.0843920247075,32.3486328125,0.00610162008921
0.0054,-0.783920288086,-0.0804158526967,32.958984375,0.0053590268024
0.0055,-0.334358215332,-0.0744826585242,33.5693359375,0.00295684743684
0.0056,0.112152099609,-0.0670583998476,34.1796875,0.00168029510974
0.0057,0.5615234375,-0.0601622265162,34.7900390625,0.00240076287461
0.0058,1.00498199463,-0.0507498818342,35.400390625,0.00155144975121
0.0059,1.43013000488,-0.0408405156509,36.0107421875,0.000887753308473
0.006,1.84020996094,-0.0314592348127,36.62109375,0.00243642364931
0.0061,2.22301483154,-0.0205868894705,37.2314453125,0.00209180721811
0.0062,2.58445739746,-0.00968348028437,37.841796875,0.0024557252978
0.0063,2.90622711182,0.00118886505788,38.4521484375,0.00330408543001
0.0064,3.18565368652,0.0125582319015,39.0625,0.00322507345418
0.0065,3.42559814453,0.0239586625889,39.6728515625,0.0033727432023
0.0066,3.62606048584,0.0358250509339,40.283203125,0.0039417519745
0.0067,3.77502441406,0.0466973962762,40.8935546875,0.00362710391125
0.0068,3.8782119751,0.0575697416184,41.50390625,0.00213216753768
0.0069,3.92990112305,0.0669820863004,42.1142578125,0.000455980760452
0.007,3.92990112305,0.0778544316427,42.724609375,0.000714982544872
0.0071,3.87516021729,0.0862727333219,43.3349609375,0.0010773615322
0.0072,3.77502441406,0.0936969919985,43.9453125,0.000521860898438
0.0073,3.62606048584,0.100624229174,44.5556640625,0.000981481539383
0.0074,3.42559814453,0.106557423346,45.166015625,0.00249009898941
0.0075,3.18565368652,0.110999553015,45.7763671875,0.00339715598691
0.0076,2.90622711182,0.113981682023,46.38671875,0.00351485025418
0.0077,2.58445739746,0.115938704184,46.9970703125,0.0046489283676
0.0078,2.22301483154,0.115938704184,47.607421875,0.00575336000302
0.0079,1.83715820312,0.114975725025,48.2177734375,0.00478490774216
0.008,1.42726898193,0.113484660521,48.828125,0.00272859357348
0.0081,0.995826721191,0.109508488511,49.4384765625,0.00169861511366
0.0082,0.555419921875,0.105066358842,50.048828125,0.00134034633592
0.0083,0.106048583984,0.0991331646696,50.6591796875,0.000679658755175
0.0084,-0.340461730957,0.0917089059931,51.26953125,0.000545538871153
0.0085,-0.796127319336,0.0837876258151,51.8798828125,0.00157571951848
0.0086,-1.23348236084,0.0758974094811,52.490234375,0.00196736762949
0.0087,-1.65863037109,0.064994000295,53.1005859375,0.00123049571124
0.0088,-2.06565856934,0.0546186764541,53.7109375,0.00111982692802
0.0089,-2.44216918945,0.0442122887694,54.3212890625,0.00172996174546
0.009,-2.79159545898,0.0328429219257,54.931640625,0.00188160111291
0.0091,-3.10134887695,0.0214735550821,55.5419921875,0.00203804008854
0.0092,-3.36856842041,0.0106012097399,56.15234375,0.0023609800089
0.0093,-3.60546112061,-0.00129624244892,56.7626953125,0.00218319357163
0.0094,-3.79390716553,-0.0126656092925,57.373046875,0.00110539029376
0.0095,-3.93657684326,-0.0230409331334,57.9833984375,0.00144930658213
0.0096,-4.02774810791,-0.0339443423195,58.59375,0.0052924009914
0.0097,-4.0641784668,-0.0433256231577,59.2041015625,0.0131863771602
0.0098,-4.05197143555,-0.0527379678397,59.814453125,0.0188974260316
0.0099,-3.99131774902,-0.0621192486778,60.4248046875,0.0169888046606
0.01,-3.86981964111,-0.0695435073544,61.03515625,0.00930099294421
0.0101,-3.71189117432,-0.0759737230283,61.6455078125,0.00204293493692
0.0102,-3.49922180176,-0.0819069172007,62.255859375,0.00083450230844
0.0103,-3.25012207031,-0.0853860677103,62.8662109375,0.00134935171936
0.0104,-2.96154022217,-0.0883371328746,63.4765625,0.00405429322712
0.0105,-2.63061523438,-0.09032521888,64.0869140625,0.00571094336859
0.0106,-2.26612091064,-0.09032521888,64.697265625,0.00531570911166
0.0107,-1.87435150146,-0.0883371328746,65.3076171875,0.00361569113889
0.0108,-1.4612197876,-0.0863490468691,65.91796875,0.00201730277248
0.0109,-1.03302001953,-0.0824039387021,66.5283203125,0.0014667831025
0.011,-0.583457946777,-0.0774647875323,67.138671875,0.00183143669949
0.0111,-0.133895874023,-0.0715315933599,67.7490234375,0.0026350443596
0.0112,0.309562683105,-0.0646043561846,68.359375,0.00306222279311
0.0113,0.758934020996,-0.0551920115026,68.9697265625,0.00261118219266
0.0114,1.1962890625,-0.0463077521658,69.580078125,0.00204871098038
0.0115,1.6185760498,-0.0363983859825,70.1904296875,0.0010884585956
0.0116,2.01644897461,-0.0265200836429,70.80078125,0.00112169110743
0.0117,2.39295959473,-0.0156166744569,71.4111328125,0.00288347663408
0.0118,2.73628234863,-0.00424730761324,72.021484375,0.00359859747409
0.0119,3.03688049316,0.00712205923037,72.6318359375,0.00293137348756
0.012,3.29818725586,0.018491426074,73.2421875,0.00110602454177
0.0121,3.5228729248,0.0298918567614,73.8525390625,0.00133790909721
0.0122,3.69911193848,0.041261223605,74.462890625,0.00339364215302
0.0123,3.82347106934,0.0516365474459,75.0732421875,0.00487828524405
0.0124,3.90548706055,0.0620429351306,75.68359375,0.00557883573143
0.0125,3.93600463867,0.0739093234756,76.2939453125,0.00516017149053
0.0126,3.91159057617,0.0818306036535,76.904296875,0.00433395043026
0.0127,3.83567810059,0.090217841489,77.5146484375,0.00372856929372
0.0128,3.71417999268,0.0976421001656,78.125,0.00158281374867
0.0129,3.54404449463,0.103575294338,78.7353515625,0.00888133898942
0.013,3.3224105835,0.109508488511,79.345703125,0.0200163618194
0.0131,3.06720733643,0.11298763902,79.9560546875,0.0242348526718
0.0132,2.76966094971,0.114975725025,80.56640625,0.0174323318263
0.0133,2.42938995361,0.116435725686,81.1767578125,0.00643087671975
0.0134,2.05593109131,0.116435725686,81.787109375,0.000339998037141
0.0135,1.6580581665,0.114975725025,82.3974609375,0.000771922173354
0.0136,1.23882293701,0.111496574516,83.0078125,0.00186725812995
0.0137,0.807571411133,0.10804848785,83.6181640625,0.00172142838902
0.0138,0.354957580566,0.102581251335,84.228515625,0.00152058486597
0.0139,-0.0913619995117,0.0961510356615,84.8388671875,0.00171656720749
0.014,-0.540924072266,0.0892237984863,85.44921875,0.0016305035723
0.0141,-0.99048614502,0.0803395391495,86.0595703125,0.00102945942223
0.0142,-1.42478942871,0.0714242159688,86.669921875,0.000467327173761
0.0143,-1.84078216553,0.0605518706266,87.2802734375,0.0013257425766
0.0144,-2.23274230957,0.0501454829418,87.890625,0.00116781001519
0.0145,-2.60314941406,0.0392731375996,88.5009765625,0.000793787045159
0.0146,-2.93426513672,0.0284007922573,89.111328125,0.00200995832286
0.0147,-3.22589874268,0.0170314254137,89.7216796875,0.00214661060508
0.0148,-3.48091125488,0.00563099472629,90.33203125,0.00108822500425
0.0149,-3.69358062744,-0.00524135061596,90.9423828125,0.000974032790666
0.015,-3.86066436768,-0.0171077389609,91.552734375,0.00208289584077
0.0151,-3.9852142334,-0.0275141266457,92.1630859375,0.00320253157266
0.0152,-4.05197143555,-0.0378894504865,92.7734375,0.00321928375681
0.0153,-4.0641784668,-0.0473017951686,93.3837890625,0.00226804465539
0.0154,-4.03366088867,-0.0561860545054,93.994140625,0.00221299596367
0.0155,-3.9457321167,-0.065101377686,94.6044921875,0.00326223946608
0.0156,-3.80592346191,-0.0725256363626,95.21484375,0.00405633400045
0.0157,-3.62377166748,-0.0779618090337,95.8251953125,0.00354892646382
0.0158,-3.39584350586,-0.0833979817048,96.435546875,0.00258084622544
0.0159,-3.1286239624,-0.0863490468691,97.0458984375,0.00226792731698
0.016,-2.82497406006,-0.0888341543759,97.65625,0.00273109344882
0.0161,-2.47573852539,-0.0893311758773,98.2666015625,0.00390450765973
0.0162,-2.0959854126,-0.0898281973787,98.876953125,0.00709279060037
0.0163,-1.69506072998,-0.0878401113732,99.4873046875,0.0120824636366
0.0164,-1.27601623535,-0.0843920247075,100.09765625,0.0147900598005
0.0165,-0.84171295166,-0.0794528735378,100.708007812,0.011559175073
0.0166,-0.382995605469,-0.0749796800255,101.318359375,0.00413466243525
0.0167,0.0635147094727,-0.0680524428503,101.928710938,0.00207273219186
0.0168,0.512886047363,-0.0606281841738,102.5390625,0.00432216874312
0.0169,0.95329284668,-0.051743924837,103.149414062,0.00380832013171
0.017,1.38168334961,-0.0418345586536,103.759765625,0.00177631382058
0.0171,1.79462432861,-0.0324532778154,104.370117188,0.000509528773451
0.0172,2.18048095703,-0.0210839109718,104.98046875,0.00150085651807
0.0173,2.54497528076,-0.0106775232871,105.590820312,0.00181341085016
0.0174,2.87284851074,0.000691843556524,106.201171875,0.00258872658426
0.0175,3.15532684326,0.0120612104001,106.811523438,0.00337618035616
0.0176,3.40137481689,0.0234616410876,107.421875,0.00362568298607
0.0177,3.60794067383,0.0348310079312,108.032226562,0.00299651018209
0.0178,3.759765625,0.0462003747748,108.642578125,0.0025142693134
0.0179,3.86600494385,0.0566067624595,109.252929688,0.00287556570274
0.018,3.92990112305,0.0664850647991,109.86328125,0.00324085413852
0.0181,3.93295288086,0.0768603886399,110.473632812,0.00329627116434
0.0182,3.89041900635,0.0857757118206,111.083984375,0.00334717606425
0.0183,3.78704071045,0.0936969919985,111.694335938,0.00364935177051
0.0184,3.64437103271,0.100127207672,112.3046875,0.00379619950578
0.0185,3.44696044922,0.107054444848,112.915039062,0.00392337983151
0.0186,3.21617126465,0.110999553015,113.525390625,0.00360869736421
0.0187,2.93674468994,0.113981682023,114.135742188,0.00256353380329
0.0188,2.62088775635,0.115938704184,114.74609375,0.00183396974487
0.0189,2.26249694824,0.116435725686,115.356445312,0.00186203450504
0.019,1.87969207764,0.115938704184,115.966796875,0.00225138605361
0.0191,1.47266387939,0.113981682023,116.577148438,0.00232113921366
0.0192,1.04446411133,0.110502531513,117.1875,0.0019107186312
0.0193,0.604057312012,0.106060401845,117.797851562,0.00105064360755
0.0194,0.154495239258,0.100127207672,118.408203125,0.0026010181227
0.0195,-0.29182434082,0.0931999704972,119.018554688,0.00379518286264
0.0196,-0.738334655762,0.0857757118206,119.62890625,0.0039626970503
0.0197,-1.18789672852,0.0768603886399,120.239257812,0.0051601622823
0.0198,-1.61304473877,0.0664850647991,120.849609375,0.00620513408859
0.0199,-2.02312469482,0.0561097409582,121.459960938,0.00583747606578
0.02,-2.40573883057,0.0462003747748,122.0703125,0.00475359495349
0.0201,-2.75802612305,0.0348310079312,122.680664062,0.00335021151205
0.0202,-3.06797027588,0.0234616410876,123.291015625,0.0021926490691
0.0203,-3.34434509277,0.0125582319015,123.901367188,0.00195979632963
0.0204,-3.58734130859,0.000691843556524,124.51171875,0.00277620171876
0.0205,-3.77864837646,-0.0116715662898,125.122070312,0.00386652711566
0.0206,-3.92742156982,-0.0215498686293,125.732421875,0.00355132926513
0.0207,-4.01859283447,-0.0324532778154,126.342773438,0.0019384529571
0.0208,-4.0641784668,-0.042331580155,126.953125,0.0032110306977
0.0209,-4.05807495117,-0.0512469033356,127.563476562,0.00292049985787
0.021,-4.00333404541,-0.0606281841738,128.173828125,0.00173973917804
0.0211,-3.89709472656,-0.0680524428503,128.784179688,0.00325035870036
0.0212,-3.73306274414,-0.0744826585242,129.39453125,0.00318211905746
0.0213,-3.52954864502,-0.0804158526967,130.004882812,0.000869830187702
0.0214,-3.28350067139,-0.0848890462089,130.615234375,0.00239539626081
0.0215,-2.99510955811,-0.0878401113732,131.225585938,0.00298258941357
0.0216,-2.67009735107,-0.0893311758773,131.8359375,0.00221814428126
0.0217,-2.31170654297,-0.09032521888,132.446289062,0.000676744593479
0.0218,-1.91993713379,-0.0888341543759,133.056640625,0.00294585850677
0.0219,-1.50985717773,-0.0863490468691,133.666992188,0.00487547378628
0.022,-1.08451843262,-0.0824039387021,134.27734375,0.00424838857042
0.0221,-0.635147094727,-0.0779618090337,134.887695312,0.00468478883587
0.0222,-0.185585021973,-0.0720286148612,135.498046875,0.00573857311088
0.0223,0.260925292969,-0.065101377686,136.108398438,0.00384577067637
0.0224,0.704383850098,-0.0561860545054,136.71875,0.00123874029308
0.0225,1.14479064941,-0.0458107306645,137.329101562,0.000753369955344
0.0226,1.57299041748,-0.0378894504865,137.939453125,0.00290594715125
0.0227,1.9739151001,-0.0270171051443,138.549804688,0.00516026589705
0.0228,2.35042572021,-0.0171077389609,139.16015625,0.0055836189873
0.0229,2.69069671631,-0.00573837211732,139.770507812,0.00704235948089
0.023,3.00350189209,0.00563099472629,140.380859375,0.00896183720362
0.0231,3.27072143555,0.0170314254137,140.991210938,0.00682481334331
0.0232,3.49864959717,0.0284007922573,141.6015625,0.00273140632849
0.0233,3.6808013916,0.039770159101,142.211914062,0.00397366584741
0.0234,3.81450653076,0.0506425044432,142.822265625,0.0085496951242
0.0235,3.90243530273,0.0610488921279,143.432617188,0.0104987860726
0.0236,3.93600463867,0.0719212374702,144.04296875,0.00789875430701
0.0237,3.92074584961,0.0808365606508,144.653320312,0.00330178760766
0.0238,3.84483337402,0.0892237984863,145.263671875,0.00294600768624
0.0239,3.73249053955,0.0971450786642,145.874023438,0.00328170652756
0.024,3.56845855713,0.103078272837,146.484375,0.00194833040928
0.0241,3.34968566895,0.10804848785,147.094726562,0.00240078303717
0.0242,3.09772491455,0.112490617519,147.705078125,0.004633143254
0.0243,2.80303955078,0.115441682683,148.315429688,0.00414878333124
0.0244,2.46887207031,0.115938704184,148.92578125,0.00443704245461
0.0245,2.10151672363,0.117429768688,149.536132812,0.00418625100225
0.0246,1.70669555664,0.115441682683,150.146484375,0.00208533778336
0.0247,1.28440856934,0.112490617519,150.756835938,0.00124726486883
0.0248,0.85620880127,0.108545509352,151.3671875,0.00167533890034
0.0249,0.409698486328,0.103575294338,151.977539062,0.00137135980098
0.025,-0.0429153442383,0.0976421001656,152.587890625,0.00458132380719
0.0251,-0.492286682129,0.090217841489,153.198242188,0.00234342922633
0.0252,-0.941848754883,0.0818306036535,153.80859375,0.00371778366522
0.0253,-1.37615203857,0.0729152804729,154.418945312,0.00167139136696
0.0254,-1.79538726807,0.062539956632,155.029296875,0.00347990423692
0.0255,-2.19020843506,0.0521335689473,155.639648438,0.0058611819139
0.0256,-2.56061553955,0.041261223605,156.25,0.000258878303698
0.0257,-2.89783477783,0.0303888782628,156.860351562,0.000344800025744
0.0258,-3.19557189941,0.0189884475753,157.470703125,0.00587695862845
0.0259,-3.45668792725,0.00712205923037,158.081054688,0.00183138659301
0.026,-3.67527008057,-0.00375028611188,158.69140625,0.00355716091695
0.0261,-3.84540557861,-0.0151196529555,159.301757812,0.00942289869343
0.0262,-3.97605895996,-0.0265200836429,159.912109375,0.00627138692721
0.0263,-4.04281616211,-0.0363983859825,160.522460938,0.00423568389498
0.0264,-4.0641784668,-0.0463077521658,161.1328125,0.00417419704381
0.0265,-4.0397644043,-0.0546949900013,161.743164062,0.00677057488457
0.0266,-3.95774841309,-0.0641073346833,162.353515625,0.00730881680444
0.0267,-3.82118225098,-0.0715315933599,162.963867188,0.00225626370177
0.0268,-3.65104675293,-0.0774647875323,163.57421875,0.0138755967929
0.0269,-3.42330932617,-0.0824039387021,164.184570312,0.00398551399268
0.027,-3.15895080566,-0.0863490468691,164.794921875,0.0050750391469
0.0271,-2.85835266113,-0.0883371328746,165.405273438,0.0174645340047
0.0272,-2.51522064209,-0.0893311758773,166.015625,0.00153331903628
0.0273,-2.14157104492,-0.0893311758773,166.625976562,0.0216110625861
0.0274,-1.74369812012,-0.0878401113732,167.236328125,0.0143574871153
0.0275,-1.32160186768,-0.0843920247075,167.846679688,0.0126717253032
0.0276,-0.887107849121,-0.0804158526967,168.45703125,0.0311143859092
0.0277,-0.440788269043,-0.0749796800255,169.067382812,0.00938618143153
0.0278,0.0118255615234,-0.0690464858531,169.677734375,0.0388485674958
0.0279,0.461387634277,-0.0616222271765,170.288085938,0.0440051000728
0.028,0.904846191406,-0.0522409463383,170.8984375,0.0220090745475
0.0281,1.33609771729,-0.0428286016563,171.508789062,0.0804591704998
0.0282,1.7520904541,-0.0329502993168,172.119140625,0.0406954377678
0.0283,2.13794708252,-0.0230409331334,172.729492188,0.10106983995
0.0284,2.50835418701,-0.0116715662898,173.33984375,0.149710981277
0.0285,2.83641815186,-0.000302199446196,173.950195312,0.0339108212195
0.0286,3.125,0.0110982312412,174.560546875,0.313952267183
0.0287,3.37409973145,0.0224675980849,175.170898438,0.239677658864
0.0288,3.58657836914,0.0333399434271,175.78125,0.443837734735
