"Latest: Time (s)","Latest: Potential (V)","Latest: Current (A)","FFT: Time - Frequency (Hz)","FFT: Potential - FFT"
0,-2.50911712646,0.0363220724353,0,0.0172874396307
0.0001,-2.47268676758,0.0382790945969,0.6103515625,2.43311998926
0.0002,-2.43015289307,0.0402671806023,1.220703125,2.56612516564
0.0003,-2.39067077637,0.0427522881091,1.8310546875,1.03982646667
0.0004,-2.34813690186,0.0442122887694,2.44140625,0.066255260654
0.0005,-2.30255126953,0.0457033532734,3.0517578125,0.13765239809
0.0006,-2.26306915283,0.0481884607802,3.662109375,0.050030180249
0.0007,-2.21748352051,0.0501454829418,4.2724609375,0.033131881873
0.0008,-2.18105316162,0.0521335689473,4.8828125,0.0306507756152
0.0009,-2.13851928711,0.0541216549527,5.4931640625,0.0135914653793
0.001,-2.09293365479,0.0561097409582,6.103515625,0.0219530891425
0.0011,-2.05039978027,0.0580667631198,6.7138671875,0.0129638740127
0.0012,-2.00786590576,0.0600548491252,7.32421875,0.0251493247634
0.0013,-1.96533203125,0.0615459136293,7.9345703125,0.00307857583598
0.0014,-1.91688537598,0.0639999572923,8.544921875,0.0384694388852
0.0015,-1.87435150146,0.0659880432977,9.1552734375,0.0146864550909
0.0016,-1.82876586914,0.0674791078018,9.765625,0.0259387967271
0.0017,-1.78318023682,0.0704301729661,10.3759765625,0.0528794251846
0.0018,-1.73454284668,0.0729152804729,10.986328125,0.000902079789749
0.0019,-1.69200897217,0.074406344977,11.5966796875,0.0795167819084
0.002,-1.64947509766,0.0758974094811,12.20703125,0.0676740767894
0.0021,-1.60388946533,0.078351453144,12.8173828125,0.0727645419633
0.0022,-1.54933929443,0.0798425176481,13.427734375,0.177434964548
0.0023,-1.50375366211,0.0818306036535,14.0380859375,0.0267182500645
0.0024,-1.45816802979,0.0837876258151,14.6484375,0.296773056211
0.0025,-1.40647888184,0.0852786903192,15.2587890625,0.356307588096
0.0026,-1.36394500732,0.087763797826,15.869140625,0.2994962393
0.0027,-1.31855010986,0.0897208199876,16.4794921875,1.23462878513
0.0028,-1.26991271973,0.0912118844917,17.08984375,0.63424266371
0.0029,-1.22127532959,0.0927029489958,17.7001953125,4.06445481831
0.003,-1.17568969727,0.0951880565026,18.310546875,13.1171831869
0.0031,-1.12400054932,0.0961510356615,18.9208984375,68.7586612359
0.0032,-1.07555389404,0.0981391216669,19.53125,134.976362561
0.0033,-1.02691650391,0.100127207672,20.1416015625,153.811290285
0.0034,-0.97827911377,0.101618272176,20.751953125,106.630978927
0.0035,-0.929641723633,0.103575294338,21.3623046875,38.5845364138
0.0036,-0.881195068359,0.105563380343,21.97265625,0.737285359244
0.0037,-0.832557678223,0.107054444848,22.5830078125,3.26215636231
0.0038,-0.786972045898,0.108545509352,23.193359375,0.96901993712
0.0039,-0.729179382324,0.110005510012,23.8037109375,0.55868067646
0.004,-0.677680969238,0.111993596017,24.4140625,0.587077509471
0.0041,-0.632095336914,0.113981682023,25.0244140625,0.0307269915621
0.0042,-0.580406188965,0.115441682683,25.634765625,0.261024222486
0.0043,-0.528717041016,0.116435725686,26.2451171875,0.142510616154
0.0044,-0.483322143555,0.118423811691,26.85546875,0.0637440348622
0.0045,-0.428581237793,0.119914876195,27.4658203125,0.124971269491
0.0046,-0.379943847656,0.121871898357,28.076171875,0.0205557774247
0.0047,-0.33130645752,0.123362962861,28.6865234375,0.0632789681872
0.0048,-0.279808044434,0.124357005864,29.296875,0.0498274537655
0.0049,-0.231170654297,0.126345091869,29.9072265625,0.0149468406829
0.005,-0.185585021973,0.127836156373,30.517578125,0.0437950805744
0.0051,-0.130844116211,0.129296157033,31.1279296875,0.0157290203396
0.0052,-0.0823974609375,0.130290200036,31.73828125,0.0216443684941
0.0053,-0.0337600708008,0.133272329044,32.3486328125,0.027270091303
0.0054,0.0179290771484,0.134266372047,32.958984375,0.00865492531969
0.0055,0.0665664672852,0.135726372707,33.5693359375,0.0132259079301
0.0056,0.115013122559,0.137217437211,34.1796875,0.0134155836428
0.0057,0.163650512695,0.138708501715,34.7900390625,0.00988081461849
0.0058,0.212287902832,0.139702544718,35.400390625,0.014079579946
0.0059,0.263977050781,0.141162545378,36.0107421875,0.000635320889418
0.006,0.309562683105,0.142653609882,36.62109375,0.00989515931676
0.0061,0.361061096191,0.144144674387,37.2314453125,0.00448897032532
0.0062,0.415802001953,0.145138717389,37.841796875,0.00203669656623
0.0063,0.46443939209,0.146629781893,38.4521484375,0.00938768290739
0.0064,0.515937805176,0.147592761052,39.0625,0.0526541456785
0.0065,0.567626953125,0.149083825556,39.6728515625,0.0922512739277
0.0066,0.613212585449,0.150077868559,40.283203125,0.085890190543
0.0067,0.661849975586,0.151071911562,40.8935546875,0.0537510894738
0.0068,0.710487365723,0.152065954564,41.50390625,0.0214191662032
0.0069,0.758934020996,0.153557019069,42.1142578125,0.000642511464057
0.007,0.810623168945,0.154519998227,42.724609375,0.00135586793742
0.0071,0.859260559082,0.15551404123,43.3349609375,0.00726080350312
0.0072,0.907897949219,0.157005105734,43.9453125,0.00383456268088
0.0073,0.956344604492,0.157502127236,44.5556640625,0.00129777375796
0.0074,1.00498199463,0.158496170238,45.166015625,0.00315746851886
0.0075,1.05056762695,0.159490213241,45.7763671875,0.0035737752423
0.0076,1.09920501709,0.160484256244,46.38671875,0.00484690934859
0.0077,1.14784240723,0.161447235403,46.9970703125,0.00760617620201
0.0078,1.19934082031,0.162441278405,47.607421875,0.0088870210601
0.0079,1.24492645264,0.162938299907,48.2177734375,0.00666381744429
0.008,1.29051208496,0.163932342909,48.828125,0.00332974767838
0.0081,1.33609771729,0.164926385912,49.4384765625,0.00352743410805
0.0082,1.38473510742,0.165920428915,50.048828125,0.00130853099002
0.0083,1.43013000488,0.166417450416,50.6591796875,0.00354189790155
0.0084,1.47571563721,0.166914471918,51.26953125,0.00115438014527
0.0085,1.52740478516,0.167877451076,51.8798828125,0.00112510673502
0.0086,1.57299041748,0.168374472578,52.490234375,0.00236189580771
0.0087,1.6185760498,0.169368515581,53.1005859375,0.00575924921342
0.0088,1.66416168213,0.169865537082,53.7109375,0.00665297704479
0.0089,1.70669555664,0.170859580085,54.3212890625,0.0036355776559
0.009,1.7520904541,0.171356601586,54.931640625,0.00212460584404
0.0091,1.79462432861,0.171853623087,55.5419921875,0.000762089051688
0.0092,1.84020996094,0.171853623087,56.15234375,0.00243085845341
0.0093,1.87969207764,0.17284766609,56.7626953125,0.00316618321578
0.0094,1.92527770996,0.173344687591,57.373046875,0.00268236084671
0.0095,1.97086334229,0.173810645249,57.9833984375,0.00124179661998
0.0096,2.0133972168,0.17430766675,58.59375,0.0136773091916
0.0097,2.05898284912,0.174804688252,59.2041015625,0.0420646322662
0.0098,2.09846496582,0.174804688252,59.814453125,0.0620801681137
0.0099,2.14099884033,0.175301709753,60.4248046875,0.0551240813965
0.01,2.18048095703,0.175798731254,61.03515625,0.0291702142379
0.0101,2.21996307373,0.176295752756,61.6455078125,0.00598068619189
0.0102,2.26249694824,0.176792774257,62.255859375,0.00522068242806
0.0103,2.30197906494,0.176792774257,62.8662109375,0.00480172400935
0.0104,2.35042572021,0.176792774257,63.4765625,0.00239810386686
0.0105,2.39601135254,0.177289795758,64.0869140625,0.00222691840905
0.0106,2.42938995361,0.177289795758,64.697265625,0.00321502709397
0.0107,2.46887207031,0.177289795758,65.3076171875,0.00293426452914
0.0108,2.50549316406,0.17778681726,65.91796875,0.00204421692605
0.0109,2.54497528076,0.17778681726,66.5283203125,0.00092924326996
0.011,2.58140563965,0.178283838761,67.138671875,0.00233126281006
0.0111,2.61783599854,0.178283838761,67.7490234375,0.00274049258351
0.0112,2.65426635742,0.17778681726,68.359375,0.00335058320318
0.0113,2.6876449585,0.178283838761,68.9697265625,0.00266379443931
0.0114,2.73017883301,0.178283838761,69.580078125,0.000774275278292
0.0115,2.76660919189,0.178283838761,70.1904296875,0.00186657784566
0.0116,2.80303955078,0.178283838761,70.80078125,0.00251094779348
0.0117,2.83336639404,0.178283838761,71.4111328125,0.00206509767306
0.0118,2.86979675293,0.177289795758,72.021484375,0.00105114472107
0.0119,2.90336608887,0.17778681726,72.6318359375,0.00193612122555
0.012,2.93369293213,0.17778681726,73.2421875,0.00306993712787
0.0121,2.9670715332,0.177289795758,73.8525390625,0.00249154479365
0.0122,3.00045013428,0.176792774257,74.462890625,0.00146198072735
0.0123,3.03077697754,0.176792774257,75.0732421875,0.00211429372397
0.0124,3.06415557861,0.176792774257,75.68359375,0.00277131742247
0.0125,3.09467315674,0.176792774257,76.2939453125,0.00183186017459
0.0126,3.125,0.175798731254,76.904296875,0.00171283403629
0.0127,3.15227508545,0.175301709753,77.5146484375,0.00188118811591
0.0128,3.18279266357,0.175301709753,78.125,0.00217518013808
0.0129,3.21006774902,0.175301709753,78.7353515625,0.0142794762336
0.013,3.24039459229,0.17430766675,79.345703125,0.0331761842553
0.0131,3.26461791992,0.173810645249,79.9560546875,0.0443952706366
0.0132,3.29208374023,0.173810645249,80.56640625,0.0370848154278
0.0133,3.31935882568,0.17284766609,81.1767578125,0.0185757038543
0.0134,3.34663391113,0.172350644589,81.787109375,0.00528724861683
0.0135,3.37104797363,0.172350644589,82.3974609375,0.00206972837452
0.0136,3.39527130127,0.171356601586,83.0078125,0.00191764771089
0.0137,3.41968536377,0.170859580085,83.6181640625,0.000616862512993
0.0138,3.44390869141,0.170362558583,84.228515625,0.0005877386804
0.0139,3.46813201904,0.169865537082,84.8388671875,0.000842185021795
0.014,3.48949432373,0.169368515581,85.44921875,0.000938711778168
0.0141,3.51676940918,0.168374472578,86.0595703125,0.00113650710042
0.0142,3.53813171387,0.166914471918,86.669921875,0.00163749500966
0.0143,3.55930328369,0.166914471918,87.2802734375,0.00221807514016
0.0144,3.58066558838,0.166417450416,87.890625,0.00185875103491
0.0145,3.6018371582,0.164926385912,88.5009765625,0.000491541576134
0.0146,3.62014770508,0.164429364411,89.111328125,0.000784567361162
0.0147,3.63826751709,0.163932342909,89.7216796875,0.00137389102724
0.0148,3.65657806396,0.162938299907,90.33203125,0.0011753211051
0.0149,3.67469787598,0.161447235403,90.9423828125,0.000500643266393
0.015,3.68995666504,0.160950213901,91.552734375,0.00108598563406
0.0151,3.70807647705,0.159987234742,92.1630859375,0.000819532969967
0.0152,3.72333526611,0.15899319174,92.7734375,0.000505248408289
0.0153,3.73859405518,0.157999148737,93.3837890625,0.00144809988831
0.0154,3.75671386719,0.157005105734,93.994140625,0.00253152277082
0.0155,3.76586914062,0.156011062732,94.6044921875,0.00389887267866
0.0156,3.78112792969,0.155017019729,95.21484375,0.0046968953214
0.0157,3.79619598389,0.154022976726,95.8251953125,0.00385818636071
0.0158,3.80535125732,0.153059997567,96.435546875,0.00185230266842
0.0159,3.81755828857,0.152065954564,97.0458984375,0.000409402433838
0.016,3.82957458496,0.151071911562,97.65625,0.00144036631715
0.0161,3.8387298584,0.149083825556,98.2666015625,0.00253387698956
0.0162,3.84788513184,0.148586804055,98.876953125,0.00211866722551
0.0163,3.85704040527,0.147126803395,99.4873046875,0.00240933554158
0.0164,3.86600494385,0.145635738891,100.09765625,0.0037070253393
0.0165,3.87516021729,0.144641695888,100.708007812,0.0039213891913
0.0166,3.89041900635,0.143647652885,101.318359375,0.00345434891787
0.0167,3.89347076416,0.142156588381,101.928710938,0.00296774790786
0.0168,3.90243530273,0.141162545378,102.5390625,0.00275816737199
0.0169,3.90548706055,0.139702544718,103.149414062,0.00260444496816
0.017,3.91159057617,0.138708501715,103.759765625,0.00233764284782
0.0171,3.91464233398,0.137217437211,104.370117188,0.00229058352705
0.0172,3.92074584961,0.135229351206,104.98046875,0.002583880577
0.0173,3.92379760742,0.134266372047,105.590820312,0.00288309899052
0.0174,3.92684936523,0.133272329044,106.201171875,0.0025483481452
0.0175,3.92990112305,0.130290200036,106.811523438,0.00188094903109
0.0176,3.92990112305,0.128799135532,107.421875,0.00141934939257
0.0177,3.92990112305,0.127836156373,108.032226562,0.0017888189346
0.0178,3.92990112305,0.126345091869,108.642578125,0.00276896290177
0.0179,3.92990112305,0.124854027365,109.252929688,0.00310247744312
0.018,3.92684936523,0.123859984362,109.86328125,0.00253345867052
0.0181,3.92379760742,0.121871898357,110.473632812,0.00152994671142
0.0182,3.92074584961,0.120411897697,111.083984375,0.000591481252822
0.0183,3.92074584961,0.118920833193,111.694335938,0.000697867144743
0.0184,3.9176940918,0.117429768688,112.3046875,0.0021531854706
0.0185,3.90853881836,0.115938704184,112.915039062,0.00427979767936
0.0186,3.90548706055,0.113981682023,113.525390625,0.00579412928924
0.0187,3.90243530273,0.111993596017,114.135742188,0.00571848527545
0.0188,3.89347076416,0.110999553015,114.74609375,0.00510635287884
0.0189,3.88126373291,0.109508488511,115.356445312,0.0054111041267
0.019,3.87516021729,0.107551466349,115.966796875,0.00702257298975
0.0191,3.86905670166,0.105563380343,116.577148438,0.00894905127313
0.0192,3.85704040527,0.104072315839,117.1875,0.00878974326123
0.0193,3.84788513184,0.102581251335,117.797851562,0.00732348252555
0.0194,3.8387298584,0.100624229174,118.408203125,0.00946390292762
0.0195,3.82652282715,0.0991331646696,119.018554688,0.024460179561
0.0196,3.81755828857,0.0976421001656,119.62890625,0.0430573823095
0.0197,3.80229949951,0.0956540141601,120.239257812,0.047608744749
0.0198,3.79314422607,0.0936969919985,120.849609375,0.0335498497682
0.0199,3.78398895264,0.0917089059931,121.459960938,0.0138996769781
0.02,3.76586914062,0.090217841489,122.0703125,0.0026182387095
0.0201,3.75061035156,0.0882608193274,122.680664062,0.00278517659953
0.0202,3.73859405518,0.0857757118206,123.291015625,0.00504461202645
0.0203,3.7202835083,0.0842846473165,123.901367188,0.00513343164427
0.0204,3.70807647705,0.0827935828124,124.51171875,0.00374595421537
0.0205,3.68995666504,0.0808365606508,125.122070312,0.00452676186899
0.0206,3.67164611816,0.0793454961467,125.732421875,0.00483727019327
0.0207,3.65352630615,0.0773574101413,126.342773438,0.00381180968997
0.0208,3.63826751709,0.0754003879797,126.953125,0.00504680186579
0.0209,3.61709594727,0.0734123019743,127.563476562,0.00447958745467
0.021,3.59878540039,0.0714242159688,128.173828125,0.00321108411153
0.0211,3.57761383057,0.0694671938072,128.784179688,0.003701311856
0.0212,3.55625152588,0.0669820863004,129.39453125,0.00422782782877
0.0213,3.53507995605,0.0644969787936,130.004882812,0.00401504391694
0.0214,3.51676940918,0.0630369781334,130.615234375,0.00367956076365
0.0215,3.48644256592,0.0610488921279,131.225585938,0.00466056483657
0.0216,3.46508026123,0.0590608061225,131.8359375,0.00398853916203
0.0217,3.44390869141,0.0575697416184,132.446289062,0.00130749318239
0.0218,3.41663360596,0.0551156979554,133.056640625,0.00203459117754
0.0219,3.39221954346,0.0536246334514,133.666992188,0.00302067481068
0.022,3.36799621582,0.0511395259446,134.27734375,0.00306884770123
0.0221,3.34358215332,0.049182503783,134.887695312,0.00250731683919
0.0222,3.31630706787,0.0471944177775,135.498046875,0.00175575051222
0.0223,3.28903198242,0.0452063317721,136.108398438,0.000636036565659
0.0224,3.26461791992,0.0427522881091,136.71875,0.00128573554434
0.0225,3.23734283447,0.041261223605,137.329101562,0.00126986412708
0.0226,3.20701599121,0.0387761160982,137.939453125,0.00127115439763
0.0227,3.17974090576,0.0368190939366,138.549804688,0.0172114260546
0.0228,3.14922332764,0.0348310079312,139.16015625,0.0547775314082
0.0229,3.12194824219,0.0333399434271,139.770507812,0.0862599467299
0.023,3.08856964111,0.0308548359203,140.380859375,0.0823942703246
0.0231,3.05824279785,0.0288978137587,140.991210938,0.0473248678789
0.0232,3.02772521973,0.0269097277533,141.6015625,0.0126940814797
0.0233,2.99739837646,0.0244246202465,142.211914062,0.00531795722882
0.0234,2.96401977539,0.0229646195862,142.822265625,0.00618565490421
0.0235,2.93369293213,0.0204795120794,143.432617188,0.00444828229216
0.0236,2.90031433105,0.018491426074,144.04296875,0.00183890364066
0.0237,2.86388397217,0.0170314254137,144.653320312,0.000155472614544
0.0238,2.83031463623,0.0145463179069,145.263671875,0.000467554455479
0.0239,2.79693603516,0.0125582319015,145.874023438,0.00146540838718
0.024,2.76355743408,0.0106012097399,146.484375,0.00188710359871
0.0241,2.7271270752,0.00861312373445,147.094726562,0.00137133425902
0.0242,2.68459320068,0.00662503772901,147.705078125,0.00068718280639
0.0243,2.6481628418,0.00417099406604,148.315429688,0.000761124448433
0.0244,2.61478424072,0.0021829080606,148.92578125,0.00139230897792
0.0245,2.57530212402,0.000194822055164,149.536132812,0.00130579528511
0.0246,2.53582000732,-0.00179326395028,150.146484375,0.000541330507897
0.0247,2.49938964844,-0.00375028611188,150.756835938,0.000989969282397
0.0248,2.46295928955,-0.00623539361868,151.3671875,0.00108046208059
0.0249,2.42347717285,-0.00772645812276,151.977539062,0.00079662572663
0.025,2.3868560791,-0.0101805017857,152.587890625,0.000708482246336
0.0251,2.3473739624,-0.0121685877912,153.198242188,0.000894855913405
0.0252,2.29587554932,-0.0141566737966,153.80859375,0.00062795912235
0.0253,2.25639343262,-0.0161136959582,154.418945312,0.000895023798028
0.0254,2.21691131592,-0.0181017819637,155.029296875,0.00201033992818
0.0255,2.17437744141,-0.0200898679691,155.639648438,0.00235627074568
0.0256,2.13489532471,-0.0220468901307,156.25,0.00183156295461
0.0257,2.0923614502,-0.0245319976375,156.860351562,0.00132642400691
0.0258,2.04982757568,-0.0265200836429,157.470703125,0.00119453871584
0.0259,2.01034545898,-0.0279800843032,158.081054688,0.00118670367202
0.026,1.96475982666,-0.0299681703086,158.69140625,0.00492251560063
0.0261,1.91612243652,-0.0319562563141,159.301757812,0.0109252864019
0.0262,1.87969207764,-0.0339443423195,159.912109375,0.0141681581247
0.0263,1.8310546875,-0.0359013644811,160.522460938,0.0111880943251
0.0264,1.78852081299,-0.0378894504865,161.1328125,0.00455556756955
0.0265,1.74617767334,-0.0403745579933,161.743164062,0.0013869793533
0.0266,1.70059204102,-0.0418345586536,162.353515625,0.00180958042691
0.0267,1.65500640869,-0.043822644659,162.963867188,0.00129119748161
0.0268,1.61247253418,-0.0463077521658,163.57421875,0.00187005391809
0.0269,1.56688690186,-0.0477677528261,164.184570312,0.00236821800514
0.027,1.51519775391,-0.0497558388315,164.794921875,0.00225501193758
0.0271,1.46961212158,-0.0512469033356,165.405273438,0.00155844853671
0.0272,1.42421722412,-0.0537320108424,166.015625,0.000984379459132
0.0273,1.3786315918,-0.0551920115026,166.625976562,0.00113058764815
0.0274,1.33304595947,-0.0566830760067,167.236328125,0.00141196024468
0.0275,1.28135681152,-0.0596652050149,167.846679688,0.001100683533
0.0276,1.2357711792,-0.0616222271765,168.45703125,0.00143727754665
0.0277,1.19018554688,-0.0631132916806,169.067382812,0.00211475982605
0.0278,1.13868713379,-0.0655983991874,169.677734375,0.00172257999373
0.0279,1.09004974365,-0.0665924421901,170.288085938,0.000883481981808
0.028,1.04446411133,-0.0685494643517,170.8984375,0.000740763786476
0.0281,0.992774963379,-0.0705375503571,171.508789062,0.000683290552338
0.0282,0.947380065918,-0.0725256363626,172.119140625,0.000333493890037
0.0283,0.898742675781,-0.0739856370228,172.729492188,0.000882339154709
0.0284,0.853157043457,-0.0759737230283,173.33984375,0.00153991307303
0.0285,0.801467895508,-0.0774647875323,173.950195312,0.00155419199966
0.0286,0.749969482422,-0.0789558520364,174.560546875,0.000882256992178
0.0287,0.698280334473,-0.0814098956994,175.170898438,0.000145977927419
0.0288,0.652694702148,-0.0829009602035,175.78125,0.000264855013933
0.0289,0.604057312012,-0.0843920247075,176.391601562,0.000622355920344
0.029,0.555419921875,-0.0863490468691,177.001953125,0.0025042635037
0.0291,0.503921508789,-0.0878401113732,177.612304688,0.00398431032161
0.0292,0.458335876465,-0.0893311758773,178.22265625,0.00208589021058
0.0293,0.406646728516,-0.0908222403814,178.833007812,0.00518943203981
