"Latest: Time (s)","Latest: Potential (V)","Latest: Current (A)","FFT: Time - Frequency (Hz)","FFT: Potential - FFT"
0,2.69374847412,0.222301305475,0,0.0151083580272
0.0001,2.25944519043,0.211925981635,0.6103515625,0.192861652221
0.0002,1.78565979004,0.198071507284,1.220703125,0.205550316464
0.0003,1.2752532959,0.179277881764,1.8310546875,0.0856888327574
0.0004,0.728607177734,0.158496170238,2.44140625,0.00388270999126
0.0005,0.172805786133,0.134732329705,3.0517578125,0.00909207774373
0.0006,-0.379943847656,0.107551466349,3.662109375,0.00488232343575
0.0007,-0.941848754883,0.0793454961467,4.2724609375,0.000542759424934
0.0008,-1.47647857666,0.049182503783,4.8828125,0.0077272419769
0.0009,-1.98669433594,0.0189884475753,5.4931640625,0.0066243959256
0.001,-2.46047973633,-0.0111745447884,6.103515625,0.00605506453292
0.0011,-2.87952423096,-0.0413375371522,6.7138671875,0.00689525477185
0.0012,-3.24096679688,-0.0705375503571,7.32421875,0.0038849911044
0.0013,-3.54785919189,-0.0977494775566,7.9345703125,0.00191617434533
0.0014,-3.77559661865,-0.124464383255,8.544921875,0.00681083547608
0.0015,-3.93657684326,-0.146209073939,9.1552734375,0.00918139850004
0.0016,-4.01554107666,-0.165499720961,9.765625,0.00744876585338
0.0017,-4.01554107666,-0.180845259815,10.3759765625,0.00276807832878
0.0018,-3.93962860107,-0.193208669662,10.986328125,0.00209853215511
0.0019,-3.77559661865,-0.201129949839,11.5966796875,0.00421604490778
0.002,-3.55091094971,-0.204081015004,12.20703125,0.00557409289575
0.0021,-3.25012207031,-0.203118035845,12.8173828125,0.00577578177776
0.0022,-2.89478302002,-0.198644842333,13.427734375,0.00324170424537
0.0023,-2.47859954834,-0.189263561494,14.0380859375,0.0031501561881
0.0024,-2.01091766357,-0.174912065643,14.6484375,0.00752579107595
0.0025,-1.50985717773,-0.158075462284,15.2587890625,0.00981363416638
0.0026,-0.923538208008,-0.135833750098,15.869140625,0.00795097214225
0.0027,-0.422477722168,-0.113560974069,16.4794921875,0.00289414531119
0.0028,0.130271911621,-0.0878401113732,17.08984375,0.00242537805717
0.0029,0.679969787598,-0.0601622265162,17.7001953125,0.00222496782922
0.003,1.22680664062,-0.03046519181,18.310546875,0.00128491956111
0.0031,1.74312591553,-0.000302199446196,18.9208984375,0.00395501429937
0.0032,2.21996307373,0.0303888782628,19.53125,0.00334388717873
0.0033,2.65731811523,0.0595578276238,20.1416015625,0.00249061381147
0.0034,3.03688049316,0.0897208199876,20.751953125,0.00584153407825
0.0035,3.34968566895,0.117429768688,21.3623046875,0.00735541543453
0.0036,3.60488891602,0.143647652885,21.97265625,0.00669688295327
0.0037,3.77807617188,0.165920428915,22.5830078125,0.00604971154314
0.0038,3.8782119751,0.186205118939,23.193359375,0.00490442456799
0.0039,3.90548706055,0.203507679955,23.8037109375,0.00235061778132
0.004,3.8387298584,0.215871089802,24.4140625,0.000657827339536
0.0041,3.70807647705,0.224786412982,25.0244140625,0.00251165702548
0.0042,3.49864959717,0.228731521149,25.634765625,0.00285673336658
0.0043,3.21311950684,0.229228542651,26.2451171875,0.00541570318225
0.0044,2.86979675293,0.225283434484,26.85546875,0.00803030101114
0.0045,2.4658203125,0.216865132804,27.4658203125,0.00695562319619
0.0046,1.9495010376,0.202513636953,28.076171875,0.00345480700286
0.0047,1.50318145752,0.188162141101,28.6865234375,0.00169946138842
0.0048,0.974655151367,0.168374472578,29.296875,0.00249672977416
0.0049,0.424957275391,0.145635738891,29.9072265625,0.00212445274569
0.005,-0.133895874023,0.119417854694,30.517578125,0.00166138034031
0.0051,-0.689697265625,0.0927029489958,31.1279296875,0.00518262862423
0.0052,-1.24244689941,0.062539956632,31.73828125,0.00495718754991
0.0053,-1.76486968994,0.0328429219257,32.3486328125,0.0037479061603
0.0054,-2.25391387939,0.00267992956196,32.958984375,0.00543708257628
0.0055,-2.70042419434,-0.0279800843032,33.5693359375,0.00467780392177
0.0056,-3.09219360352,-0.0566830760067,34.1796875,0.00207964605642
0.0057,-3.41720581055,-0.0858830892116,34.7900390625,0.00123445137364
0.0058,-3.684425354,-0.111603951907,35.400390625,0.00330004139971
0.0059,-3.86981964111,-0.136827793101,36.0107421875,0.00559942236603
0.006,-3.98826599121,-0.157112483125,36.62109375,0.00613802028551
0.0061,-4.0246963501,-0.17391802264,37.2314453125,0.00397814699798
0.0062,-3.98216247559,-0.188269518492,37.841796875,0.00283666847763
0.0063,-3.85456085205,-0.19765079933,38.4521484375,0.00471230581652
0.0064,-3.66020202637,-0.203118035845,39.0625,0.00400425326475
0.0065,-3.39298248291,-0.203583993502,39.6728515625,0.00164447664329
0.0066,-3.01322937012,-0.199638885335,40.283203125,0.0014098833546
0.0067,-2.66704559326,-0.193705691163,40.8935546875,0.00119854868712
0.0068,-2.22358703613,-0.181342281317,41.50390625,0.00088684120132
0.0069,-1.73759460449,-0.165996742462,42.1142578125,0.00146395690141
0.007,-1.22127532959,-0.147203116942,42.724609375,0.00168177858591
0.0071,-0.671577453613,-0.125427362414,43.3349609375,0.0014885014872
0.0072,-0.115776062012,-0.0997064997182,43.9453125,0.00137161477959
0.0073,0.436973571777,-0.0725256363626,44.5556640625,0.00160169495058
0.0074,0.983810424805,-0.0433256231577,45.166015625,0.00174726858522
0.0075,1.51214599609,-0.0136596522952,45.7763671875,0.00126501143202
0.0076,2.0133972168,0.0165344039124,46.38671875,0.00390971124571
0.0077,2.47192382812,0.0466973962762,46.9970703125,0.00815924743814
0.0078,2.87590026855,0.0768603886399,47.607421875,0.00983700315107
0.0079,3.22227478027,0.104569337341,48.2177734375,0.00742180190343
0.008,3.50170135498,0.132278286042,48.828125,0.00362110273619
0.0081,3.71112823486,0.156508084233,49.4384765625,0.00171716150221
0.0082,3.84483337402,0.177289795758,50.048828125,0.00241676558626
0.0083,3.90548706055,0.19658044278,50.6591796875,0.00503784829609
0.0084,3.8782119751,0.21043491713,51.26953125,0.00540688806717
0.0085,3.77502441406,0.221307262473,51.8798828125,0.00339307682847
0.0086,3.6018371582,0.228234499648,52.490234375,0.00202778453658
0.0087,3.34968566895,0.230222585653,53.1005859375,0.0035720098464
0.0088,3.03077697754,0.227737478147,53.7109375,0.00445278864807
0.0089,2.6481628418,0.221307262473,54.3212890625,0.00357063008127
0.009,2.21385955811,0.21043491713,54.931640625,0.00157599269164
0.0091,1.73397064209,0.19658044278,55.5419921875,0.00102679302509
0.0092,1.21459960938,0.17778681726,56.15234375,0.00200137794226
0.0093,0.671005249023,0.156011062732,56.7626953125,0.00208226020581
0.0094,0.115013122559,0.131284243039,57.373046875,0.0020169577244
0.0095,-0.443840026855,0.105066358842,57.9833984375,0.00179309703967
0.0096,-0.999641418457,0.0768603886399,58.59375,0.00452891094061
0.0097,-1.53102874756,0.0462003747748,59.2041015625,0.0108683826539
0.0098,-2.04429626465,0.016037382411,59.814453125,0.0161794411599
0.0099,-2.50911712646,-0.0141566737966,60.4248046875,0.014960718935
0.01,-2.92510986328,-0.043822644659,61.03515625,0.00821756732717
0.0101,-3.28350067139,-0.0734886155215,61.6455078125,0.00215779116206
0.0102,-3.57818603516,-0.10020352122,62.255859375,0.00103001790778
0.0103,-3.79676818848,-0.125924383915,62.8662109375,0.0017999064782
0.0104,-3.95183563232,-0.147700138443,63.4765625,0.00226109154694
0.0105,-4.01554107666,-0.166493763963,64.0869140625,0.00237899531937
0.0106,-4.01248931885,-0.181839302818,64.697265625,0.00307521513805
0.0107,-3.92742156982,-0.193705691163,65.3076171875,0.00437534098131
0.0108,-3.75442504883,-0.200632928338,65.91796875,0.00523655189921
0.0109,-3.52344512939,-0.204081015004,66.5283203125,0.00548194905118
0.011,-3.21674346924,-0.202621014344,67.138671875,0.00518994401115
0.0111,-2.85224914551,-0.197153777829,67.7490234375,0.00491329142531
0.0112,-2.43320465088,-0.187275475489,68.359375,0.00500395367957
0.0113,-1.96533203125,-0.172923979637,68.9697265625,0.00464093592143
0.0114,-1.45206451416,-0.155621418621,69.580078125,0.00304697555373
0.0115,-0.908470153809,-0.134839707096,70.1904296875,0.00173505661636
0.0116,-0.364875793457,-0.110112887403,70.80078125,0.000866491799456
0.0117,0.188064575195,-0.0843920247075,71.4111328125,0.00267831874634
0.0118,0.737762451172,-0.0561860545054,72.021484375,0.00551505348645
0.0119,1.28135681152,-0.0270171051443,72.6318359375,0.00586883410131
0.012,1.7915725708,0.00317695106332,73.2421875,0.00472254203551
0.0121,2.268409729,0.0333399434271,73.8525390625,0.00321817278223
0.0122,2.69985198975,0.0630369781334,74.462890625,0.00142618029429
0.0123,3.07636260986,0.0927029489958,75.0732421875,0.00275621019964
0.0124,3.38306427002,0.119914876195,75.68359375,0.00317238231912
0.0125,3.62606048584,0.146132760392,76.2939453125,0.00173954818032
0.0126,3.79314422607,0.170362558583,76.904296875,0.000198030513111
0.0127,3.89041900635,0.188162141101,77.5146484375,0.00128412810003
0.0128,3.90243530273,0.204998744459,78.125,0.00154537908243
0.0129,3.83262634277,0.217859175807,78.7353515625,0.00100905276193
0.013,3.68690490723,0.225283434484,79.345703125,0.000393406690208
0.0131,3.46813201904,0.229228542651,79.9560546875,0.00181505946817
0.0132,3.17974090576,0.229228542651,80.56640625,0.00293305454833
0.0133,2.82726287842,0.224786412982,81.1767578125,0.00290690609208
0.0134,2.41737365723,0.215871089802,81.787109375,0.00160035949272
0.0135,1.95255279541,0.203010658454,82.3974609375,0.000965147528358
0.0136,1.44538879395,0.186205118939,83.0078125,0.00237190803384
0.0137,0.91381072998,0.165920428915,83.6181640625,0.00334373484556
0.0138,0.361061096191,0.143150631384,84.228515625,0.00366390230792
0.0139,-0.19474029541,0.116932747187,84.8388671875,0.00331541620243
0.014,-0.747489929199,0.0892237984863,85.44921875,0.00344133430676
0.0141,-1.3032913208,0.0600548491252,86.0595703125,0.00497874348669
0.0142,-1.8196105957,0.0298918567614,86.669921875,0.00591332138896
0.0143,-2.30255126953,-0.000799220947556,87.2802734375,0.00462802927945
0.0144,-2.74906158447,-0.0309622133113,87.890625,0.00197658400473
0.0145,-3.1286239624,-0.0606281841738,88.5009765625,0.00268221489383
0.0146,-3.45363616943,-0.0908222403814,89.111328125,0.00401796102003
0.0147,-3.70273590088,-0.11405799557,89.7216796875,0.00351217711151
0.0148,-3.89404296875,-0.138784815263,90.33203125,0.00201558424761
0.0149,-4.0002822876,-0.159069505287,90.9423828125,0.00230071885076
0.015,-4.02164459229,-0.175409087144,91.552734375,0.00290005431454
0.0151,-3.97300720215,-0.189263561494,92.1630859375,0.00211220199703
0.0152,-3.83930206299,-0.198147820831,92.7734375,0.00206368165354
0.0153,-3.63292694092,-0.203118035845,93.3837890625,0.00227543413952
0.0154,-3.35636138916,-0.204081015004,93.994140625,0.000844876668234
0.0155,-3.02238464355,-0.200135906837,94.6044921875,0.00284781393151
0.0156,-2.62451171875,-0.191717605157,95.21484375,0.00385917647944
0.0157,-2.17189788818,-0.179354195311,95.8251953125,0.00183820695631
0.0158,-1.68285369873,-0.163542698799,96.435546875,0.00262265883545
0.0159,-1.15451812744,-0.144718009435,97.0458984375,0.00495296339148
0.016,-0.610733032227,-0.122476297249,97.65625,0.00355837062213
0.0161,-0.0579833984375,-0.0962584130525,98.2666015625,0.000502498178169
0.0162,0.500869750977,-0.0690464858531,98.876953125,0.00110344070541
0.0163,1.04141235352,-0.039877536492,99.4873046875,0.00686068405527
0.0164,1.57299041748,-0.0101805017857,100.09765625,0.0123234652946
0.0165,2.06508636475,0.0204795120794,100.708007812,0.0111879393916
0.0166,2.51750946045,0.0541216549527,101.318359375,0.00465867096091
0.0167,2.91538238525,0.0803395391495,101.928710938,0.00158799266961
0.0168,3.25260162354,0.108545509352,102.5390625,0.00283801060767
0.0169,3.52897644043,0.135229351206,103.149414062,0.00330939014574
0.017,3.72638702393,0.159490213241,103.759765625,0.0035638301561
0.0171,3.85398864746,0.180240860923,104.370117188,0.00385885556843
0.0172,3.90548706055,0.198568528785,104.98046875,0.00311636898034
0.0173,3.86905670166,0.212888960793,105.590820312,0.00217903165121
0.0174,3.759765625,0.222798326977,106.201171875,0.00441639223173
0.0175,3.57761383057,0.228234499648,106.811523438,0.0048701985257
0.0176,3.31325531006,0.230222585653,107.421875,0.00354346673019
0.0177,2.99434661865,0.227240456645,108.032226562,0.00282245244466
0.0178,2.60562896729,0.22031321947,108.642578125,0.00313811173503
0.0179,2.15911865234,0.209440874128,109.252929688,0.00319507581421
0.018,1.67617797852,0.194095335273,109.86328125,0.00167837497344
0.0181,1.15070343018,0.175798731254,110.473632812,0.0016421643923
0.0182,0.607109069824,0.154519998227,111.083984375,0.00379649063588
0.0183,0.0543594360352,0.128799135532,111.694335938,0.00579343064699
0.0184,-0.504493713379,0.101618272176,112.3046875,0.00694488300568
0.0185,-1.06029510498,0.0739093234756,112.915039062,0.0056956747547
0.0186,-1.59492492676,0.043715267268,113.525390625,0.00317692177017
0.0187,-2.0959854126,0.0125582319015,114.135742188,0.00350904881115
0.0188,-2.55470275879,-0.0171077389609,114.74609375,0.00474392543159
0.0189,-2.96764373779,-0.0468047736672,115.356445312,0.00728549858889
0.019,-3.31993103027,-0.0764707445296,115.966796875,0.00899947853426
0.0191,-3.60546112061,-0.102688628726,116.577148438,0.00755581775796
0.0192,-3.81202697754,-0.128409491422,117.1875,0.00603073023494
0.0193,-3.9608001709,-0.15018524595,117.797851562,0.00720121023373
0.0194,-4.0246963501,-0.168481849969,118.408203125,0.00809887304376
0.0195,-4.00333404541,-0.182833345821,119.018554688,0.00833837854348
0.0196,-3.91235351562,-0.194699734166,119.62890625,0.0074062103417
0.0197,-3.73611450195,-0.201129949839,120.239257812,0.00482049539178
0.0198,-3.4839630127,-0.204081015004,120.849609375,0.00175424810504
0.0199,-3.17726135254,-0.202621014344,121.459960938,0.000766877621166
0.02,-2.81276702881,-0.195693777168,122.0703125,0.000929741425492
0.0201,-2.38151550293,-0.185287389484,122.680664062,0.00212694784162
0.0202,-1.90467834473,-0.170935893632,123.291015625,0.00117521233871
0.0203,-1.39141082764,-0.153136311114,123.901367188,0.00867221451108
0.0204,-0.859832763672,-0.132354599589,124.51171875,0.0149561197491
0.0205,-0.300979614258,-0.107627779896,125.122070312,0.0128693951028
0.0206,0.248718261719,-0.0814098956994,125.732421875,0.00447015372763
0.0207,0.807571411133,-0.0522409463383,126.342773438,0.00713743487028
0.0208,1.34220123291,-0.0230409331334,126.953125,0.00972483078266
0.0209,1.84631347656,0.00662503772901,127.563476562,0.00819461049261
0.021,2.31704711914,0.0368190939366,128.173828125,0.00529929841156
0.0211,2.74829864502,0.0664850647991,128.784179688,0.00241502910792
0.0212,3.10974121094,0.0961510356615,129.39453125,0.00196649343195
0.0213,3.41053009033,0.123859984362,130.004882812,0.00463601313777
0.0214,3.65047454834,0.149083825556,130.615234375,0.00722288324565
0.0215,3.80535125732,0.171356601586,131.225585938,0.00835815973118
0.0216,3.89347076416,0.190647248608,131.8359375,0.00731885021298
0.0217,3.89957427979,0.206955766621,132.446289062,0.00572478655188
0.0218,3.82061004639,0.21885321881,133.056640625,0.00448246933146
0.0219,3.66859436035,0.226743435144,133.666992188,0.00174956235514
0.022,3.43780517578,0.229725564152,134.27734375,0.00146426484829
0.0221,3.14331054688,0.229228542651,134.887695312,0.00255338792038
0.0222,2.79083251953,0.224289391481,135.498046875,0.00272463827152
0.0223,2.3717880249,0.214877046799,136.108398438,0.00414680810371
0.0224,1.8949508667,0.202016615451,136.71875,0.00554391089917
0.0225,1.39064788818,0.184714054435,137.329101562,0.00522307067211
0.0226,0.85620880127,0.163932342909,137.939453125,0.00377186795787
0.0227,0.297355651855,0.141162545378,138.549804688,0.00338406624553
0.0228,-0.252342224121,0.113981682023,139.16015625,0.00424809149932
0.0229,-0.820350646973,0.0862727333219,139.770507812,0.00505896508126
0.023,-1.36108398438,0.0566067624595,140.380859375,0.0052324619759
0.0231,-1.87435150146,0.0264127062519,140.991210938,0.00536066466962
0.0232,-2.36015319824,-0.00375028611188,141.6015625,0.00684506797402
0.0233,-2.7946472168,-0.0334473208181,142.211914062,0.00935359462467
0.0234,-3.1681060791,-0.0631132916806,142.822265625,0.0103952461147
0.0235,-3.49006652832,-0.0918162833841,143.432617188,0.00807109469501
0.0236,-3.73306274414,-0.116543103077,144.04296875,0.00426626113593
0.0237,-3.90930175781,-0.140772901268,144.653320312,0.0017230448021
0.0238,-4.00333404541,-0.160560569791,145.263671875,0.00178250898781
0.0239,-4.02164459229,-0.176900151648,145.874023438,0.00481425787829
0.024,-3.9608001709,-0.189760582996,146.484375,0.0063290933376
0.0241,-3.82118225098,-0.198644842333,147.094726562,0.005279724276
0.0242,-3.61156463623,-0.203118035845,147.705078125,0.00307773368801
0.0243,-3.32298278809,-0.203118035845,148.315429688,0.00103606082909
0.0244,-2.97985076904,-0.199141863834,148.92578125,0.00148498396684
0.0245,-2.57892608643,-0.191220583656,149.536132812,0.00358833120348
0.0246,-2.12020874023,-0.177863130807,150.146484375,0.00398519610345
0.0247,-1.62830352783,-0.162051634295,150.756835938,0.00331569940302
0.0248,-1.09977722168,-0.142263965772,151.3671875,0.00377033059175
0.0249,-0.550079345703,-0.118034167581,151.977539062,0.00357407447334
0.025,-0.000381469726562,-0.0932762840444,152.587890625,0.00216015355809
0.0251,0.555419921875,-0.0660954206887,153.198242188,0.000644742553742
0.0252,1.1022567749,-0.0363983859825,153.80859375,0.00130852439796
0.0253,1.62773132324,-0.00673241512004,154.418945312,0.00325411878022
0.0254,2.11353302002,0.0239586625889,155.029296875,0.00326619360617
0.0255,2.57225036621,0.0541216549527,155.639648438,0.000692091612396
0.0256,2.95486450195,0.0832906043138,156.25,0.00535415337676
0.0257,3.28598022461,0.111496574516,156.860351562,0.00821656192509
0.0258,3.55319976807,0.138211480214,157.470703125,0.00806708224138
0.0259,3.74450683594,0.161447235403,158.081054688,0.00680604857796
0.026,3.86009216309,0.182228946928,158.69140625,0.00517660376238
0.0261,3.90548706055,0.200525550947,159.301757812,0.00313926386321
0.0262,3.86295318604,0.213385982295,159.912109375,0.00189862201691
0.0263,3.74164581299,0.223295348478,160.522460938,0.00232398004489
0.0264,3.55319976807,0.228731521149,161.1328125,0.00415688793807
0.0265,3.2829284668,0.229725564152,161.743164062,0.00665560447848
0.0266,2.95486450195,0.226246413642,162.353515625,0.00805061736706
0.0267,2.56004333496,0.219319176467,162.963867188,0.0065875379052
0.0268,2.11048126221,0.208446831125,163.57421875,0.00367144303103
0.0269,1.62162780762,0.192138313112,164.184570312,0.0043169730582
0.027,1.09310150146,0.173344687591,164.794921875,0.00476394545738
0.0271,0.549507141113,0.151071911562,165.405273438,0.00349364415827
0.0272,-0.00934600830078,0.125848070368,166.015625,0.0037148030737
0.0273,-0.565147399902,0.0991331646696,166.625976562,0.00502285498026
0.0274,-1.11808776855,0.0704301729661,167.236328125,0.00722052452719
0.0275,-1.66473388672,0.0392731375996,167.846679688,0.00715925214431
0.0276,-2.14767456055,0.00960716673717,168.45703125,0.00409069485605
0.0277,-2.60620117188,-0.0205868894705,169.067382812,0.00230240327379
0.0278,-3.0101776123,-0.0502528603329,169.677734375,0.00199065132801
0.0279,-3.3504486084,-0.0789558520364,170.288085938,0.000946176023564
0.028,-3.63292694092,-0.105670757735,170.8984375,0.00145840546672
0.0281,-3.83625030518,-0.130894598929,171.508789062,0.00259345903481
0.0282,-3.97300720215,-0.152639289613,172.119140625,0.00302832122202
0.0283,-4.0246963501,-0.169972914473,172.729492188,0.0037297741935
0.0284,-3.99723052979,-0.184293346481,173.33984375,0.00293826934399
0.0285,-3.89404296875,-0.195196755667,173.950195312,0.00198999764008
0.0286,-3.684425354,-0.202123992842,174.560546875,0.00535204958975
0.0287,-3.45668792725,-0.204081015004,175.170898438,0.00821733108601
0.0288,-3.14083099365,-0.201626971341,175.78125,0.0104444227408
0.0289,-2.76412963867,-0.195196755667,176.391601562,0.0115874829302
0.029,-2.32982635498,-0.18379632498,177.001953125,0.00945823944473
