"Latest: Time (s)","Latest: Potential (V)","Latest: Current (A)","FFT: Time - Frequency (Hz)","FFT: Potential - FFT"
0,-2.21138000488,0.0501454829418,0,0.0136759061727
0.0001,-2.15072631836,0.0526305904486,0.6103515625,2.06856386968
0.0002,-2.09903717041,0.0546186764541,1.220703125,2.18533680722
0.0003,-2.04734802246,0.0575697416184,1.8310546875,0.884531321586
0.0004,-1.99279785156,0.0600548491252,2.44140625,0.0610141909864
0.0005,-1.93195343018,0.062539956632,3.0517578125,0.115468011203
0.0006,-1.87740325928,0.064994000295,3.662109375,0.0490882954214
0.0007,-1.82266235352,0.0674791078018,4.2724609375,0.0272818775681
0.0008,-1.76792144775,0.0704301729661,4.8828125,0.0279436565786
0.0009,-1.71337127686,0.0739093234756,5.4931640625,0.00814073225703
0.001,-1.65252685547,0.0758974094811,6.103515625,0.0158270889989
0.0011,-1.59797668457,0.078351453144,6.7138671875,0.0029750574756
0.0012,-1.53408050537,0.0808365606508,7.32421875,0.00661252024354
0.0013,-1.47647857666,0.0837876258151,7.9345703125,0.0108244885109
0.0014,-1.41868591309,0.0857757118206,8.544921875,0.0161821491379
0.0015,-1.36108398438,0.0882608193274,9.1552734375,0.0114164573046
0.0016,-1.30023956299,0.0907148629904,9.765625,0.0109433874198
0.0017,-1.24244689941,0.0931999704972,10.3759765625,0.0145701699348
0.0018,-1.1848449707,0.0956540141601,10.986328125,0.00326651520762
0.0019,-1.11808776855,0.0981391216669,11.5966796875,0.0220752651098
0.002,-1.06029510498,0.100127207672,12.20703125,0.0135810296489
0.0021,-0.999641418457,0.103078272837,12.8173828125,0.0132925134124
0.0022,-0.93879699707,0.104569337341,13.427734375,0.0310935440597
0.0023,-0.878143310547,0.107054444848,14.0380859375,0.00703601908264
0.0024,-0.820350646973,0.109508488511,14.6484375,0.0414144553938
0.0025,-0.747489929199,0.111993596017,15.2587890625,0.0393137243415
0.0026,-0.686645507812,0.113981682023,15.869140625,0.0260377368464
0.0027,-0.625991821289,0.115938704184,16.4794921875,0.0798889095272
0.0028,-0.565147399902,0.118423811691,17.08984375,0.0319371248464
0.0029,-0.501441955566,0.120411897697,17.7001953125,0.108566354219
0.003,-0.440788269043,0.122368919858,18.310546875,0.138058054634
0.0031,-0.370788574219,0.124357005864,18.9208984375,0.0544894182744
0.0032,-0.31623840332,0.12684211337,19.53125,0.312568339311
0.0033,-0.252342224121,0.129296157033,20.1416015625,0.194524849693
0.0034,-0.188636779785,0.130787221538,20.751953125,0.481393144852
0.0035,-0.127792358398,0.133272329044,21.3623046875,1.01096103167
0.0036,-0.067138671875,0.135726372707,21.97265625,0.170394250706
0.0037,-0.00648498535156,0.137217437211,22.5830078125,4.0949206474
0.0038,0.0574111938477,0.139205523217,23.193359375,6.92103227668
0.0039,0.118064880371,0.141162545378,23.8037109375,55.6002057362
0.004,0.178909301758,0.143150631384,24.4140625,124.174978809
0.0041,0.239562988281,0.145138717389,25.0244140625,155.649693144
0.0042,0.30345916748,0.146132760392,25.634765625,119.188661678
0.0043,0.364112854004,0.148089782554,26.2451171875,50.3102231263
0.0044,0.431060791016,0.150077868559,26.85546875,4.77795538075
0.0045,0.491714477539,0.151071911562,27.4658203125,3.9276417431
0.0046,0.555419921875,0.153059997567,28.076171875,0.457552550337
0.0047,0.613212585449,0.154519998227,28.6865234375,0.889380405267
0.0048,0.676918029785,0.156011062732,29.296875,0.530444221465
0.0049,0.740814208984,0.157502127236,29.9072265625,0.124469562344
0.005,0.80451965332,0.15899319174,30.517578125,0.303943915167
0.0051,0.859260559082,0.160950213901,31.1279296875,0.0883722370207
0.0052,0.922966003418,0.161944256904,31.73828125,0.12284070353
0.0053,0.983810424805,0.163435321408,32.3486328125,0.11184918902
0.0054,1.04141235352,0.164926385912,32.958984375,0.0121451948125
0.0055,1.1022567749,0.166417450416,33.5693359375,0.0777209552207
0.0056,1.16291046143,0.166914471918,34.1796875,0.0352767568984
0.0057,1.22375488281,0.168871494079,34.7900390625,0.0334267339551
0.0058,1.28135681152,0.169865537082,35.400390625,0.0410742818625
0.0059,1.3391494751,0.170859580085,36.0107421875,0.00406705529739
0.006,1.39675140381,0.171853623087,36.62109375,0.0313897811413
0.0061,1.45454406738,0.17284766609,37.2314453125,0.0164733289902
0.0062,1.51214599609,0.173810645249,37.841796875,0.0103818055395
0.0063,1.57299041748,0.174804688252,38.4521484375,0.0196696984771
0.0064,1.63059234619,0.175798731254,39.0625,0.00496333503582
0.0065,1.68533325195,0.177289795758,39.6728515625,0.0146955831911
0.0066,1.74007415771,0.17778681726,40.283203125,0.00954643046151
0.0067,1.79462432861,0.178780860263,40.8935546875,0.00323483843608
0.0068,1.85241699219,0.179277881764,41.50390625,0.0137543132338
0.0069,1.90715789795,0.180240860923,42.1142578125,0.00112477706776
0.007,1.96475982666,0.181234903926,42.724609375,0.0056247275863
0.0071,2.01644897461,0.181234903926,43.3349609375,0.00770557967561
0.0072,2.07099914551,0.182228946928,43.9453125,0.00218007041207
0.0073,2.12268829346,0.18272596843,44.5556640625,0.0064126882055
0.0074,2.17132568359,0.183222989931,45.166015625,0.00266384330885
0.0075,2.21996307373,0.183720011432,45.7763671875,0.00301551351643
0.0076,2.27451324463,0.184217032934,46.38671875,0.00369334331425
0.0077,2.32315063477,0.184714054435,46.9970703125,0.00187477214887
0.0078,2.38094329834,0.185211075936,47.607421875,0.00489408581931
0.0079,2.42938995361,0.185211075936,48.2177734375,0.00364779780801
0.008,2.47802734375,0.185211075936,48.828125,0.0378969842783
0.0081,2.52056121826,0.186205118939,49.4384765625,0.0891221183153
0.0082,2.57225036621,0.186205118939,50.048828125,0.107373447726
0.0083,2.61783599854,0.186205118939,50.6591796875,0.0809920411379
0.0084,2.66342163086,0.186205118939,51.26953125,0.0388051748571
0.0085,2.70576477051,0.186671076597,51.8798828125,0.00788986470289
0.0086,2.75745391846,0.186205118939,52.490234375,0.00169169227466
0.0087,2.79998779297,0.186205118939,53.1005859375,0.00268394965867
0.0088,2.84252166748,0.186205118939,53.7109375,0.00235777973297
0.0089,2.8881072998,0.186205118939,54.3212890625,0.00385179804245
0.009,2.92453765869,0.186205118939,54.931640625,0.00325300243835
0.0091,2.97012329102,0.185708097438,55.5419921875,0.00115308894278
0.0092,3.0065536499,0.185211075936,56.15234375,0.00286338499845
0.0093,3.0460357666,0.185708097438,56.7626953125,0.00270722476095
0.0094,3.0855178833,0.185211075936,57.373046875,0.000763181298999
0.0095,3.125,0.184714054435,57.9833984375,0.00135723309041
0.0096,3.15837860107,0.184217032934,58.59375,0.00275564280105
0.0097,3.19786071777,0.184217032934,59.2041015625,0.00963395250609
0.0098,3.23123931885,0.183222989931,59.814453125,0.0142482836417
0.0099,3.26461791992,0.18272596843,60.4248046875,0.0111379305207
0.01,3.29818725586,0.18272596843,61.03515625,0.00398460581272
0.0101,3.32851409912,0.181731925427,61.6455078125,0.00288182819626
0.0102,3.3618927002,0.181234903926,62.255859375,0.00306339694934
0.0103,3.39527130127,0.180737882424,62.8662109375,0.00318245882808
0.0104,3.42559814453,0.179774903265,63.4765625,0.00425776753624
0.0105,3.45611572266,0.178780860263,64.0869140625,0.00547812341218
0.0106,3.48339080811,0.178283838761,64.697265625,0.00414574223981
0.0107,3.51676940918,0.177289795758,65.3076171875,0.000988269881781
0.0108,3.54404449463,0.176792774257,65.91796875,0.00137092772605
0.0109,3.57151031494,0.175301709753,66.5283203125,0.00142082223988
0.011,3.59573364258,0.17430766675,67.138671875,0.00172885967382
0.0111,3.61709594727,0.173810645249,67.7490234375,0.00173751942709
0.0112,3.6413192749,0.172350644589,68.359375,0.00231108751669
0.0113,3.66554260254,0.171356601586,68.9697265625,0.00196638866348
0.0114,3.68690490723,0.170362558583,69.580078125,0.00181510656513
0.0115,3.70807647705,0.169368515581,70.1904296875,0.00220399578548
0.0116,3.72638702393,0.167877451076,70.80078125,0.00184968322595
0.0117,3.74450683594,0.166914471918,71.4111328125,0.00143574454478
0.0118,3.76281738281,0.165423407414,72.021484375,0.00146868524111
0.0119,3.78112792969,0.163932342909,72.6318359375,0.00298890657552
0.012,3.79619598389,0.162938299907,73.2421875,0.00404039389877
0.0121,3.81145477295,0.161447235403,73.8525390625,0.0250409921819
0.0122,3.82957458496,0.159987234742,74.462890625,0.0529414878267
0.0123,3.8387298584,0.15899319174,75.0732421875,0.0633834219259
0.0124,3.85398864746,0.157005105734,75.68359375,0.0461519743748
0.0125,3.86295318604,0.15551404123,76.2939453125,0.0178527648143
0.0126,3.87210845947,0.154519998227,76.904296875,0.000943908876181
0.0127,3.88736724854,0.153059997567,77.5146484375,0.00251864212727
0.0128,3.89652252197,0.151071911562,78.125,0.00051002321375
0.0129,3.90548706055,0.149580847058,78.7353515625,0.00121758145716
0.013,3.91159057617,0.147592761052,79.345703125,0.00130297013076
0.0131,3.91464233398,0.145635738891,79.9560546875,0.00185181713374
0.0132,3.92074584961,0.143647652885,80.56640625,0.00210463876404
0.0133,3.92684936523,0.142653609882,81.1767578125,0.00195017895027
0.0134,3.92684936523,0.140696587721,81.787109375,0.00219480297613
0.0135,3.92684936523,0.138708501715,82.3974609375,0.00196033708396
0.0136,3.92990112305,0.13672041571,83.0078125,0.00125408049228
0.0137,3.92990112305,0.135229351206,83.6181640625,0.000468956363315
0.0138,3.92379760742,0.133272329044,84.228515625,0.000899310650306
0.0139,3.92684936523,0.130290200036,84.8388671875,0.00132856651251
0.014,3.92074584961,0.127836156373,85.44921875,0.0012560473184
0.0141,3.91464233398,0.12684211337,86.0595703125,0.000566296757115
0.0142,3.91159057617,0.123859984362,86.669921875,0.000569982961851
0.0143,3.90548706055,0.121871898357,87.2802734375,0.000755171652682
0.0144,3.89652252197,0.119417854694,87.890625,0.00126525515564
0.0145,3.88736724854,0.117429768688,88.5009765625,0.00212659606794
0.0146,3.87210845947,0.115441682683,89.111328125,0.00127125243768
0.0147,3.86600494385,0.113484660521,89.7216796875,0.00122234460396
0.0148,3.85398864746,0.110999553015,90.33203125,0.00261255023602
0.0149,3.8387298584,0.108545509352,90.9423828125,0.00340940091283
0.015,3.82957458496,0.107054444848,91.552734375,0.00363798856546
0.0151,3.81450653076,0.104072315839,92.1630859375,0.00323177710697
0.0152,3.7992477417,0.101618272176,92.7734375,0.00241390371198
0.0153,3.78398895264,0.099630186171,93.3837890625,0.0015470458086
0.0154,3.76586914062,0.0976421001656,93.994140625,0.0021158799347
0.0155,3.74755859375,0.0951880565026,94.6044921875,0.00435935405447
0.0156,3.72943878174,0.0922059274944,95.21484375,0.00562601171226
0.0157,3.71112823486,0.090217841489,95.8251953125,0.00471286062368
0.0158,3.68995666504,0.087763797826,96.435546875,0.00243704374271
0.0159,3.66859436035,0.0857757118206,97.0458984375,0.00179830315259
0.016,3.64437103271,0.0832906043138,97.65625,0.00156292582146
0.0161,3.62014770508,0.0803395391495,98.2666015625,0.00545924559578
0.0162,3.59878540039,0.0778544316427,98.876953125,0.0187436046348
0.0163,3.57761383057,0.0754003879797,99.4873046875,0.0358309181049
0.0164,3.54709625244,0.0729152804729,100.09765625,0.0421351478608
0.0165,3.5228729248,0.0704301729661,100.708007812,0.0306544609916
0.0166,3.48949432373,0.0664850647991,101.318359375,0.0118472887133
0.0167,3.45916748047,0.0644969787936,101.928710938,0.000311026287287
0.0168,3.43170166016,0.0620429351306,102.5390625,0.00250489663218
0.0169,3.40137481689,0.0595578276238,103.149414062,0.00245542646565
0.017,3.37104797363,0.0566067624595,103.759765625,0.00284038318823
0.0171,3.33766937256,0.0546186764541,104.370117188,0.00300897796623
0.0172,3.30715179443,0.0516365474459,104.98046875,0.00250923771547
0.0173,3.27377319336,0.0486854822816,105.590820312,0.00199995307793
0.0174,3.24039459229,0.0462003747748,106.201171875,0.00109969642605
0.0175,3.2039642334,0.0442122887694,106.811523438,0.000744867859506
0.0176,3.16753387451,0.0407642021037,107.421875,0.0016549652941
0.0177,3.13110351562,0.0377820730955,108.032226562,0.00171274106115
0.0178,3.09467315674,0.0358250509339,108.642578125,0.0011749602396
0.0179,3.05519104004,0.0328429219257,109.252929688,0.000628736216589
0.018,3.01570892334,0.0298918567614,109.86328125,0.000539347225598
0.0181,2.97622680664,0.027903770756,110.473632812,0.000801344387232
0.0182,2.93674468994,0.0244246202465,111.083984375,0.000654006051844
0.0183,2.89421081543,0.0224675980849,111.694335938,0.000119551672525
0.0184,2.85472869873,0.0189884475753,112.3046875,0.001123531502
0.0185,2.81219482422,0.0165344039124,112.915039062,0.0021964610217
0.0186,2.76355743408,0.0140492964056,113.525390625,0.00310804284597
0.0187,2.72102355957,0.0110982312412,114.135742188,0.00363693636278
0.0188,2.67238616943,0.00861312373445,114.74609375,0.00353098426254
0.0189,2.62680053711,0.00563099472629,115.356445312,0.00258159250839
0.019,2.58140563965,0.00317695106332,115.966796875,0.000856296786305
0.0191,2.53276824951,0.000691843556524,116.577148438,0.00171662264335
0.0192,2.490234375,-0.0022592216078,117.1875,0.00269062209244
0.0193,2.44159698486,-0.0047443291146,117.797851562,0.00266947054344
0.0194,2.38990783691,-0.0072294366214,118.408203125,0.00245456940545
0.0195,2.34146118164,-0.0101805017857,119.018554688,0.00198668688262
0.0196,2.28366851807,-0.0131626307939,119.62890625,0.000778049718422
0.0197,2.23503112793,-0.0156166744569,120.239257812,0.00179581478064
0.0198,2.18353271484,-0.0181017819637,120.849609375,0.00358772911563
0.0199,2.13184356689,-0.0205868894705,121.459960938,0.00477839290095
0.02,2.08015441895,-0.0235379546348,122.0703125,0.0056645964507
0.0201,2.02560424805,-0.0260230621416,122.680664062,0.00614564594827
0.0202,1.9739151001,-0.0289741273059,123.291015625,0.00550710164703
0.0203,1.91612243652,-0.0314592348127,123.901367188,0.00353557805911
0.0204,1.86157226562,-0.0339443423195,124.51171875,0.00184434235598
0.0205,1.80683135986,-0.0363983859825,125.122070312,0.00279807019069
0.0206,1.7520904541,-0.0388834934893,125.732421875,0.00443463741149
0.0207,1.6975402832,-0.0418345586536,126.342773438,0.00647630217709
0.0208,1.64279937744,-0.043822644659,126.953125,0.00826888232282
0.0209,1.58519744873,-0.0463077521658,127.563476562,0.00777280489289
0.021,1.52130126953,-0.0492588173302,128.173828125,0.00468641159855
0.0211,1.46675109863,-0.051743924837,128.784179688,0.00222269534647
0.0212,1.40895843506,-0.0541979684999,129.39453125,0.00214809014446
0.0213,1.35116577148,-0.0566830760067,130.004882812,0.00176757916144
0.0214,1.29661560059,-0.0601622265162,130.615234375,0.00260567880986
0.0215,1.2357711792,-0.0626162701792,131.225585938,0.00384686462143
0.0216,1.17511749268,-0.0646043561846,131.8359375,0.00415941872648
0.0217,1.11427307129,-0.0670583998476,132.446289062,0.00374508830165
0.0218,1.05361938477,-0.0695435073544,133.056640625,0.00276751948916
0.0219,0.992774963379,-0.0720286148612,133.666992188,0.00113484536347
0.022,0.932121276855,-0.0739856370228,134.27734375,0.00248539812759
0.0221,0.871276855469,-0.0764707445296,134.887695312,0.00339485528765
0.0222,0.813674926758,-0.0794528735378,135.498046875,0.00267445370185
0.0223,0.746917724609,-0.080912874198,136.108398438,0.00353016850522
0.0224,0.686073303223,-0.0833979817048,136.71875,0.00525699094974
0.0225,0.625419616699,-0.0853860677103,137.329101562,0.00604336546401
0.0226,0.567626953125,-0.0883371328746,137.939453125,0.00588815223743
0.0227,0.503921508789,-0.09032521888,138.549804688,0.00431836493196
0.0228,0.443077087402,-0.0918162833841,139.16015625,0.00219399777013
0.0229,0.376319885254,-0.0942703270471,139.770507812,0.00173066391722
0.023,0.315475463867,-0.0962584130525,140.380859375,0.00171185048207
0.0231,0.251770019531,-0.098246499058,140.991210938,0.00316954461079
0.0232,0.191116333008,-0.10020352122,141.6015625,0.00290930497106
0.0233,0.130271911621,-0.102688628726,142.211914062,0.00271864752085
0.0234,0.0696182250977,-0.10417969323,142.822265625,0.00613562732524
0.0235,0.00877380371094,-0.106136715392,143.432617188,0.00636263396018
0.0236,-0.0518798828125,-0.108124801397,144.04296875,0.00343709812332
0.0237,-0.115776062012,-0.110112887403,144.653320312,0.00388241323322
0.0238,-0.173377990723,-0.111603951907,145.263671875,0.00476012834196
0.0239,-0.237274169922,-0.113560974069,145.874023438,0.00282433047649
0.024,-0.300979614258,-0.115549060074,146.484375,0.00206654260831
0.0241,-0.361824035645,-0.117537146079,147.094726562,0.00256208206142
0.0242,-0.42552947998,-0.119494168241,147.705078125,0.00149736073357
0.0243,-0.489234924316,-0.121979275748,148.315429688,0.00461968756363
0.0244,-0.550079345703,-0.123470340252,148.92578125,0.0173236808533
0.0245,-0.610733032227,-0.125427362414,149.536132812,0.0343960218095
0.0246,-0.668525695801,-0.126918426918,150.146484375,0.0404806890059
0.0247,-0.732231140137,-0.128409491422,150.756835938,0.0290073235526
0.0248,-0.802230834961,-0.130397577427,151.3671875,0.0111368647594
0.0249,-0.862884521484,-0.13139162043,151.977539062,0.00215226914519
0.025,-0.923538208008,-0.13285162109,152.587890625,0.00172337523494
0.0251,-0.981330871582,-0.134342685594,153.198242188,0.00104115733754
0.0252,-1.04217529297,-0.135833750098,153.80859375,0.000282779762843
0.0253,-1.09977722168,-0.137324814602,154.418945312,0.00083228370831
0.0254,-1.16062164307,-0.138784815263,155.029296875,0.00048989368239
0.0255,-1.22737884521,-0.139778858265,155.639648438,0.000239561724832
0.0256,-1.28211975098,-0.141269922769,156.25,0.000473079841036
0.0257,-1.3427734375,-0.142263965772,156.860351562,0.000270409880546
0.0258,-1.40342712402,-0.143258008775,157.470703125,0.00186720585874
0.0259,-1.45816802979,-0.144718009435,158.081054688,0.00286753279366
0.026,-1.51596069336,-0.145712052438,158.69140625,0.0019003374154
0.0261,-1.5796661377,-0.146706095441,159.301757812,0.000422971917846
0.0262,-1.63440704346,-0.147700138443,159.912109375,0.0019847767568
0.0263,-1.69506072998,-0.149191202947,160.522460938,0.00206754696481
0.0264,-1.74980163574,-0.149688224449,161.1328125,0.00118816344354
0.0265,-1.80435180664,-0.15018524595,161.743164062,0.000534539386427
0.0266,-1.86214447021,-0.151179288953,162.353515625,0.00106992370917
0.0267,-1.91383361816,-0.152639289613,162.963867188,0.00132859031405
0.0268,-1.97143554688,-0.153136311114,163.57421875,0.00130244285073
0.0269,-2.02617645264,-0.153633332616,164.184570312,0.000900966218159
0.027,-2.08377838135,-0.154627375618,164.794921875,0.000454906308963
0.0271,-2.13241577148,-0.15512439712,165.405273438,0.000888397116787
0.0272,-2.18410491943,-0.156615461624,166.015625,0.00179027101479
0.0273,-2.2388458252,-0.156615461624,166.625976562,0.00263474368269
0.0274,-2.28729248047,-0.157112483125,167.236328125,0.00293757321017
0.0275,-2.34508514404,-0.157609504627,167.846679688,0.00297647783676
0.0276,-2.39677429199,-0.157609504627,168.45703125,0.00312022674796
0.0277,-2.44522094727,-0.158075462284,169.067382812,0.00287204127387
0.0278,-2.49691009521,-0.158572483786,169.677734375,0.00220308131004
0.0279,-2.54249572754,-0.159069505287,170.288085938,0.00179220827247
0.028,-2.59113311768,-0.159069505287,170.8984375,0.00104237816752
0.0281,-2.63957977295,-0.159566526788,171.508789062,0.000520939830382
0.0282,-2.68821716309,-0.16006354829,172.119140625,6.84883797222E-05
0.0283,-2.73380279541,-0.159566526788,172.729492188,0.00118386593154
0.0284,-2.77938842773,-0.16006354829,173.33984375,0.00947028232278
0.0285,-2.82802581787,-0.16006354829,173.950195312,0.0410817125676
0.0286,-2.87055969238,-0.160560569791,174.560546875,0.0774813906612
0.0287,-2.91309356689,-0.160560569791,175.170898438,0.0863152391394
0.0288,-2.95848846436,-0.16006354829,175.78125,0.0585490313098
0.0289,-2.99797058105,-0.159566526788,176.391601562,0.0207004692513
0.029,-3.04050445557,-0.16006354829,177.001953125,0.00159853974526
0.0291,-3.07998657227,-0.159566526788,177.612304688,0.000653607325977
0.0292,-3.11946868896,-0.159566526788,178.22265625,0.0010637426803
