"Latest: Time (s)","Latest: Potential (V)","Latest: Current (A)","FFT: Time - Frequency (Hz)","FFT: Potential - FFT"
0,-0.06103515625,-0.0210839109718,0,0.00554858543218
0.0001,-0.152206420898,-0.0270171051443,0.6103515625,1.52136929819
0.0002,-0.252342224121,-0.0329502993168,1.220703125,1.61163078607
0.0003,-0.352668762207,-0.0383864719879,1.8310546875,0.652710263675
0.0004,-0.45280456543,-0.043822644659,2.44140625,0.0501228944203
0.0005,-0.556182861328,-0.0497558388315,3.0517578125,0.0878689497005
0.0006,-0.650215148926,-0.0551920115026,3.662109375,0.0365664806529
0.0007,-0.744438171387,-0.0616222271765,4.2724609375,0.0179830972448
0.0008,-0.853729248047,-0.0670583998476,4.8828125,0.0190513706992
0.0009,-0.947952270508,-0.0725256363626,5.4931640625,0.00140368928036
0.001,-1.04217529297,-0.0779618090337,6.103515625,0.0098948319129
0.0011,-1.13925933838,-0.0833979817048,6.7138671875,0.00530698264696
0.0012,-1.23958587646,-0.0883371328746,7.32421875,0.00428776712946
0.0013,-1.33056640625,-0.0937733055457,7.9345703125,0.00772153692657
0.0014,-1.42478942871,-0.0987435205593,8.544921875,0.0088264943245
0.0015,-1.51290893555,-0.10417969323,9.1552734375,0.00729912712298
0.0016,-1.60999298096,-0.1091188444,9.765625,0.0110009778569
0.0017,-1.70116424561,-0.11405799557,10.3759765625,0.0093436562301
0.0018,-1.78928375244,-0.118531189082,10.986328125,0.000469145853101
0.0019,-1.87740325928,-0.124961404756,11.5966796875,0.00341125010825
0.002,-1.96838378906,-0.129900555926,12.20703125,0.000637014710327
0.0021,-2.05345153809,-0.134342685594,12.8173828125,0.000592899177752
0.0022,-2.13241577148,-0.138784815263,13.427734375,0.00354016770492
0.0023,-2.21748352051,-0.143755030276,14.0380859375,0.00226752184489
0.0024,-2.29949951172,-0.147700138443,14.6484375,0.00260108333357
0.0025,-2.38151550293,-0.15164524661,15.2587890625,0.00449326608679
0.0026,-2.46047973633,-0.156118440123,15.869140625,0.00368872564415
0.0027,-2.53944396973,-0.16006354829,16.4794921875,0.00018209474497
0.0028,-2.6123046875,-0.1640397203,17.08984375,0.0060460225109
0.0029,-2.68821716309,-0.167984828468,17.7001953125,0.0065381930097
0.003,-2.76718139648,-0.170935893632,18.310546875,0.00351835527926
0.0031,-2.8341293335,-0.174912065643,18.9208984375,0.00159717263769
0.0032,-2.90088653564,-0.178360152308,19.53125,0.00490892221774
0.0033,-2.97069549561,-0.181839302818,20.1416015625,0.00457540750214
0.0034,-3.0345916748,-0.185784410985,20.751953125,0.0072465594635
0.0035,-3.09829711914,-0.189263561494,21.3623046875,0.00451736168171
0.0036,-3.15895080566,-0.192214626659,21.97265625,0.00139585719609
0.0037,-3.21674346924,-0.194699734166,22.5830078125,0.00999087857704
0.0038,-3.27739715576,-0.197153777829,23.193359375,0.00588264426644
0.0039,-3.33213806152,-0.199638885335,23.8037109375,0.00652096026932
0.004,-3.38382720947,-0.202621014344,24.4140625,0.0135188155191
0.0041,-3.43837738037,-0.204578036505,25.0244140625,0.00302959538008
0.0042,-3.48701477051,-0.207063144012,25.634765625,0.0139221885582
0.0043,-3.53565216064,-0.209051230017,26.2451171875,0.0157990011263
0.0044,-3.58123779297,-0.211008252179,26.85546875,0.0125395307596
0.0045,-3.62682342529,-0.212499316683,27.4658203125,0.0217543506351
0.0046,-3.66630554199,-0.213990381187,28.076171875,0.0106626551678
0.0047,-3.70578765869,-0.215481445691,28.6865234375,0.0322329363035
0.0048,-3.74221801758,-0.216941446351,29.296875,0.0299959517542
0.0049,-3.77254486084,-0.217935489354,29.9072265625,0.0133489066467
0.005,-3.8028717041,-0.218929532357,30.517578125,0.0561471213356
0.0051,-3.83338928223,-0.21992357536,31.1279296875,0.0323788107102
0.0052,-3.85761260986,-0.220420596861,31.73828125,0.0691594763201
0.0053,-3.89404296875,-0.220917618362,32.3486328125,0.0972109194385
0.0054,-3.91521453857,-0.220917618362,32.958984375,0.0181404644292
0.0055,-3.93352508545,-0.221414639864,33.5693359375,0.185577931397
0.0056,-3.95183563232,-0.221414639864,34.1796875,0.135593939551
0.0057,-3.96690368652,-0.221414639864,34.7900390625,0.21790046787
0.0058,-3.97911071777,-0.221414639864,35.400390625,0.508029232259
0.0059,-3.99131774902,-0.220917618362,36.0107421875,0.0263521792859
0.006,-3.99723052979,-0.220420596861,36.62109375,1.29684413246
0.0061,-4.00333404541,-0.21992357536,37.2314453125,1.77209060471
0.0062,-4.00638580322,-0.219426553858,37.841796875,2.96489414841
0.0063,-4.00333404541,-0.217935489354,38.4521484375,22.5238209945
0.0064,-4.00333404541,-0.216941446351,39.0625,84.5284107764
0.0065,-3.99723052979,-0.215978467193,39.6728515625,144.099015817
0.0066,-3.99131774902,-0.214487402689,40.283203125,146.583526061
0.0067,-3.97911071777,-0.212996338184,40.8935546875,89.5123560513
0.0068,-3.96995544434,-0.211008252179,41.50390625,25.850747246
0.0069,-3.95469665527,-0.209548251519,42.1142578125,2.36477136653
0.007,-3.93962860107,-0.207560165513,42.724609375,2.13110335626
0.0071,-3.9213180542,-0.205572079508,43.3349609375,1.26447177446
0.0072,-3.89709472656,-0.203118035845,43.9453125,0.141094271218
0.0073,-3.86371612549,-0.201129949839,44.5556640625,0.539440976833
0.0074,-3.83930206299,-0.198644842333,45.166015625,0.185055468693
0.0075,-3.80897521973,-0.19619079867,45.7763671875,0.169632639118
0.0076,-3.77559661865,-0.19271164816,46.38671875,0.182777231124
0.0077,-3.74526977539,-0.190723562155,46.9970703125,0.0060728650713
0.0078,-3.7088394165,-0.187275475489,47.607421875,0.0992204299196
0.0079,-3.67240905762,-0.183330367322,48.2177734375,0.0640776988408
0.008,-3.62987518311,-0.180348238314,48.828125,0.041199988338
0.0081,-3.59039306641,-0.176900151648,49.4384765625,0.0561389080775
0.0082,-3.54175567627,-0.173421001139,50.048828125,0.00891542781054
0.0083,-3.49311828613,-0.169972914473,50.6591796875,0.0371324167919
0.0084,-3.444480896,-0.166493763963,51.26953125,0.0244338081938
0.0085,-3.39298248291,-0.162548655796,51.8798828125,0.00913017206038
0.0086,-3.33824157715,-0.159069505287,52.490234375,0.0274835271838
0.0087,-3.2865524292,-0.154627375618,53.1005859375,0.00425635206355
0.0088,-3.22589874268,-0.150682267451,53.7109375,0.0118192263377
0.0089,-3.1681060791,-0.146706095441,54.3212890625,0.0171290167046
0.009,-3.10745239258,-0.141766944271,54.931640625,0.00467844013561
0.0091,-3.04660797119,-0.137821836104,55.5419921875,0.0129840026646
0.0092,-2.98290252686,-0.133845664093,56.15234375,0.00469245904018
0.0093,-2.91614532471,-0.128906512923,56.7626953125,0.00631108864635
0.0094,-2.84614562988,-0.123967361753,57.373046875,0.00966402676469
0.0095,-2.77633666992,-0.118034167581,57.9833984375,0.003068717512
0.0096,-2.70347595215,-0.113560974069,58.59375,0.00913738915488
0.0097,-2.62451171875,-0.108124801397,59.2041015625,0.00672020414472
0.0098,-2.55165100098,-0.103682671729,59.814453125,0.0137142388276
0.0099,-2.47573852539,-0.0987435205593,60.4248046875,0.0191856188622
0.01,-2.39372253418,-0.0932762840444,61.03515625,0.0090633185603
0.0101,-2.31170654297,-0.0883371328746,61.6455078125,0.0052329673482
0.0102,-2.22969055176,-0.0829009602035,62.255859375,0.00348914882445
0.0103,-2.14462280273,-0.0779618090337,62.8662109375,0.00151837915954
0.0104,-2.06260681152,-0.0725256363626,63.4765625,0.00465717420188
0.0105,-1.9775390625,-0.0670583998476,64.0869140625,0.000530673561981
0.0106,-1.88636779785,-0.0621192486778,64.697265625,0.00172227526827
0.0107,-1.79538726807,-0.0561860545054,65.3076171875,0.00233832237101
0.0108,-1.71031951904,-0.0502528603329,65.91796875,0.000980566761807
0.0109,-1.61914825439,-0.0443196661604,66.5283203125,0.00329843538767
0.011,-1.52187347412,-0.0388834934893,67.138671875,0.00128901233068
0.0111,-1.43089294434,-0.0334473208181,67.7490234375,0.00139224582383
0.0112,-1.33666992188,-0.0275141266457,68.359375,0.00292505478285
0.0113,-1.24549865723,-0.0220468901307,68.9697265625,0.00309174866338
0.0114,-1.145362854,-0.0166107174596,69.580078125,0.00312271302605
0.0115,-1.05113983154,-0.0106775232871,70.1904296875,0.000643837775163
0.0116,-0.95100402832,-0.0047443291146,70.80078125,0.00196041250962
0.0117,-0.859832763672,0.00118886505788,71.4111328125,0.0026420583467
0.0118,-0.753593444824,0.00662503772901,72.021484375,0.00109307300492
0.0119,-0.656318664551,0.0125582319015,72.6318359375,0.00148501252164
0.012,-0.559234619141,0.018491426074,73.2421875,0.00145799812062
0.0121,-0.461959838867,0.0244246202465,73.8525390625,0.00183866482649
0.0122,-0.358772277832,0.0298918567614,74.462890625,0.00172272573197
0.0123,-0.261497497559,0.0358250509339,75.0732421875,0.00130517957697
0.0124,-0.161361694336,0.041261223605,75.68359375,0.0031125578597
0.0125,-0.0640869140625,0.0471944177775,76.2939453125,0.000731076008261
0.0126,0.0331878662109,0.0526305904486,76.904296875,0.000898566113234
0.0127,0.133323669434,0.0595578276238,77.5146484375,0.00604234394005
0.0128,0.230598449707,0.0639999572923,78.125,0.00522521451543
0.0129,0.327682495117,0.0709271944675,78.7353515625,0.0608903520381
0.013,0.431060791016,0.0758974094811,79.345703125,0.146593261191
0.0131,0.528144836426,0.0823276251549,79.9560546875,0.194253332268
0.0132,0.625419616699,0.087763797826,80.56640625,0.157362164477
0.0133,0.725555419922,0.0927029489958,81.1767578125,0.0719624554395
0.0134,0.822830200195,0.0981391216669,81.787109375,0.0105098155158
0.0135,0.919914245605,0.103575294338,82.3974609375,0.00497701334775
0.0136,1.01413726807,0.109508488511,83.0078125,0.00156674351376
0.0137,1.10836029053,0.114478703524,83.6181640625,0.00158933966283
0.0138,1.20849609375,0.119914876195,84.228515625,0.000956527485882
0.0139,1.2996673584,0.124854027365,84.8388671875,0.00200351527207
0.014,1.39064788818,0.129793178535,85.44921875,0.00171512436862
0.0141,1.48181915283,0.135726372707,86.0595703125,0.00122400560082
0.0142,1.58214569092,0.141162545378,86.669921875,0.000250693402563
0.0143,1.66721343994,0.145635738891,87.2802734375,0.00172110664294
0.0144,1.75514221191,0.15057489006,87.890625,0.00177508262155
0.0145,1.84326171875,0.155017019729,88.5009765625,0.00148249400909
0.0146,1.92832946777,0.159987234742,89.111328125,0.00176968808153
0.0147,2.01644897461,0.164429364411,89.7216796875,0.00160757168523
0.0148,2.10151672363,0.168871494079,90.33203125,0.00108559786903
0.0149,2.18048095703,0.17284766609,90.9423828125,0.00145963358143
0.015,2.25944519043,0.17778681726,91.552734375,0.00198107726708
0.0151,2.35042572021,0.182228946928,92.1630859375,0.00178059565525
0.0152,2.4263381958,0.185211075936,92.7734375,0.00125329698207
0.0153,2.50244140625,0.189653205605,93.3837890625,0.00077501226753
0.0154,2.57530212402,0.193598313772,93.994140625,0.0020718276833
0.0155,2.6481628418,0.198071507284,94.6044921875,0.00343699770678
0.0156,2.7271270752,0.20151959395,95.21484375,0.00388010591529
0.0157,2.79388427734,0.204998744459,95.8251953125,0.00335837943892
0.0158,2.86083221436,0.208446831125,96.435546875,0.00198017618263
0.0159,2.92453765869,0.211428960133,97.0458984375,0.00108879362703
0.016,2.99129486084,0.214877046799,97.65625,0.00124676927917
0.0161,3.04908752441,0.217859175807,98.2666015625,0.000805902889969
0.0162,3.10974121094,0.22031321947,98.876953125,0.00119806408847
0.0163,3.17058563232,0.223295348478,99.4873046875,0.00243345468469
0.0164,3.22513580322,0.225749392141,100.09765625,0.00280760749141
0.0165,3.27682495117,0.228234499648,100.708007812,0.00239744990054
0.0166,3.32851409912,0.231216628656,101.318359375,0.00149385562709
0.0167,3.38020324707,0.232676629316,101.928710938,0.00143269375629
0.0168,3.42559814453,0.234664715322,102.5390625,0.002036848474
0.0169,3.47118377686,0.236652801327,103.149414062,0.0020687303299
0.017,3.51982116699,0.238609823489,103.759765625,0.00145969919298
0.0171,3.5623550415,0.240100887993,104.370117188,0.000447687035221
0.0172,3.6018371582,0.241591952497,104.98046875,0.000771436603184
0.0173,3.63521575928,0.243083017001,105.590820312,0.00156187377202
0.0174,3.66859436035,0.244077060004,106.201171875,0.00141191782503
0.0175,3.70197296143,0.245040039163,106.811523438,0.000810114577326
0.0176,3.73249053955,0.246034082165,107.421875,0.000539688426047
0.0177,3.75671386719,0.246531103667,108.032226562,0.00101742655003
0.0178,3.78398895264,0.247028125168,108.642578125,0.00138340426762
0.0179,3.80535125732,0.247525146669,109.252929688,0.00158332968442
0.018,3.82347106934,0.248022168171,109.86328125,0.00162150853903
0.0181,3.8387298584,0.248022168171,110.473632812,0.000973157466814
0.0182,3.86009216309,0.247525146669,111.083984375,0.000134150753983
0.0183,3.86600494385,0.248022168171,111.694335938,0.000977931367541
0.0184,3.8782119751,0.247525146669,112.3046875,0.00159019470324
0.0185,3.89041900635,0.246531103667,112.915039062,0.00145139352678
0.0186,3.89347076416,0.246034082165,113.525390625,0.00136930010094
0.0187,3.89957427979,0.245537060664,114.135742188,0.00276979792561
0.0188,3.89957427979,0.244574081505,114.74609375,0.00384925396326
0.0189,3.89347076416,0.243083017001,115.356445312,0.00329802549473
0.019,3.89347076416,0.242088973998,115.966796875,0.00374502125943
0.0191,3.88126373291,0.240597909494,116.577148438,0.00553578745205
0.0192,3.86905670166,0.23910684499,117.1875,0.00329583869546
0.0193,3.86009216309,0.23764684433,117.797851562,0.00457047667077
0.0194,3.84483337402,0.235658758324,118.408203125,0.015325109617
0.0195,3.82347106934,0.23416769382,119.018554688,0.0687461083224
0.0196,3.80535125732,0.231713650157,119.62890625,0.125464414743
0.0197,3.78398895264,0.229725564152,120.239257812,0.13381268965
0.0198,3.759765625,0.227240456645,120.849609375,0.0861129449489
0.0199,3.73554229736,0.224786412982,121.459960938,0.0272905033534
0.02,3.70197296143,0.222301305475,122.0703125,0.00236824092132
0.0201,3.67164611816,0.219319176467,122.680664062,0.00220189637734
0.0202,3.6413192749,0.216865132804,123.291015625,0.00368109176958
0.0203,3.60488891602,0.213883003796,123.901367188,0.00444966854163
0.0204,3.56540679932,0.21043491713,124.51171875,0.00309243817324
0.0205,3.52592468262,0.207452788122,125.122070312,0.00251723559084
0.0206,3.48033905029,0.204501722958,125.732421875,0.00247012603763
0.0207,3.43170166016,0.201022572448,126.342773438,0.00305761203945
0.0208,3.38611602783,0.197574485783,126.953125,0.00200887240972
0.0209,3.33766937256,0.192635334613,127.563476562,0.00200262964646
0.021,3.2829284668,0.189156184103,128.173828125,0.00451765425326
0.0211,3.23123931885,0.185211075936,128.784179688,0.00848594094946
0.0212,3.17668914795,0.180737882424,129.39453125,0.0121225849283
0.0213,3.11584472656,0.177289795758,130.004882812,0.0124685383518
0.0214,3.05824279785,0.173344687591,130.615234375,0.00851089100206
0.0215,2.99434661865,0.168374472578,131.225585938,0.00316420804683
0.0216,2.93369293213,0.163932342909,131.8359375,0.00159361202143
0.0217,2.86674499512,0.159490213241,132.446289062,0.00247498732713
0.0218,2.79998779297,0.155017019729,133.056640625,0.00246187429861
0.0219,2.73017883301,0.15057489006,133.666992188,0.00112454657149
0.022,2.65426635742,0.146132760392,134.27734375,0.00200423494765
0.0221,2.58140563965,0.141162545378,134.887695312,0.00454890227542
0.0222,2.50835418701,0.136223394209,135.498046875,0.00490265620308
0.0223,2.43244171143,0.130290200036,136.108398438,0.00326004030579
0.0224,2.35652923584,0.125351048866,136.71875,0.00198082781873
0.0225,2.26554870605,0.120411897697,137.329101562,0.00213711851239
0.0226,2.18658447266,0.115441682683,137.939453125,0.00124383466573
0.0227,2.10742950439,0.109508488511,138.549804688,0.00107311417779
0.0228,2.02255249023,0.104569337341,139.16015625,0.00281572979021
0.0229,1.9344329834,0.099630186171,139.770507812,0.00342250268601
0.023,1.84631347656,0.0936969919985,140.380859375,0.00315803210076
0.0231,1.76124572754,0.0882608193274,140.991210938,0.00304052058379
0.0232,1.6731262207,0.0832906043138,141.6015625,0.00373677652151
0.0233,1.58519744873,0.0778544316427,142.211914062,0.00502270560768
0.0234,1.48792266846,0.0719212374702,142.822265625,0.00564110446567
0.0235,1.39980316162,0.0654910217963,143.432617188,0.0049081050609
0.0236,1.30577087402,0.0600548491252,144.04296875,0.0031809656059
0.0237,1.21154785156,0.0541216549527,144.653320312,0.00132127955464
0.0238,1.11427307129,0.0486854822816,145.263671875,0.0011104503219
0.0239,1.02024078369,0.0422552666078,145.874023438,0.00213875507267
0.024,0.92601776123,0.0372850515942,146.484375,0.0019752758379
0.0241,0.82893371582,0.0313518574217,147.094726562,0.000450762833195
0.0242,0.728607177734,0.0254186632492,147.705078125,0.00174699294578
0.0243,0.631523132324,0.0194854690767,148.315429688,0.00291073559494
0.0244,0.531196594238,0.0140492964056,148.92578125,0.00237382920345
0.0245,0.433921813965,0.00861312373445,149.536132812,0.00124516159905
0.0246,0.33073425293,0.00267992956196,150.146484375,0.00111897725702
0.0247,0.233459472656,-0.00325326461052,150.756835938,0.000810059564317
0.0248,0.136375427246,-0.00918645878301,151.3671875,0.000540022248865
0.0249,0.0391006469727,-0.0151196529555,151.977539062,0.00114922148607
0.025,-0.0579833984375,-0.0205868894705,152.587890625,0.00173526394864
0.0251,-0.155258178711,-0.0260230621416,153.198242188,0.00231053031275
0.0252,-0.255393981934,-0.0319562563141,153.80859375,0.00261281453262
0.0253,-0.352668762207,-0.0373924289852,154.418945312,0.00229900148827
0.0254,-0.455856323242,-0.0433256231577,155.029296875,0.00171977224423
0.0255,-0.553131103516,-0.0487617958288,155.639648438,0.00122267050655
0.0256,-0.650215148926,-0.0546949900013,156.25,0.000984345023885
0.0257,-0.747489929199,-0.0616222271765,156.860351562,0.00130987109815
0.0258,-0.853729248047,-0.0665924421901,157.470703125,0.00181153839586
0.0259,-0.95100402832,-0.0715315933599,158.081054688,0.00217293957995
0.026,-1.04503631592,-0.0774647875323,158.69140625,0.010649487858
0.0261,-1.14231109619,-0.0829009602035,159.301757812,0.0237339760833
0.0262,-1.23958587646,-0.0878401113732,159.912109375,0.0303540429024
0.0263,-1.33056640625,-0.0932762840444,160.522460938,0.0238676497065
0.0264,-1.42478942871,-0.098246499058,161.1328125,0.0102598035308
0.0265,-1.51596069336,-0.103185650228,161.743164062,0.00107978080999
0.0266,-1.61304473877,-0.108124801397,162.353515625,0.00199323446692
0.0267,-1.70421600342,-0.11405799557,162.963867188,0.00104823298204
0.0268,-1.78928375244,-0.118034167581,163.57421875,0.00107819845083
0.0269,-1.87435150146,-0.124961404756,164.184570312,0.000949213647926
0.027,-1.96838378906,-0.128906512923,164.794921875,0.000440167369843
0.0271,-2.05039978027,-0.133845664093,165.405273438,0.000772531075858
0.0272,-2.1354675293,-0.138287793761,166.015625,0.00102439524686
0.0273,-2.22053527832,-0.142760987274,166.625976562,0.000676365997628
0.0274,-2.29949951172,-0.147203116942,167.236328125,0.000177774223514
0.0275,-2.38456726074,-0.151179288953,167.846679688,0.000306517193168
0.0276,-2.46353149414,-0.15512439712,168.45703125,0.000648293432357
0.0277,-2.53639221191,-0.159566526788,169.067382812,0.000914019640368
0.0278,-2.61535644531,-0.163045677298,169.677734375,0.00115273709585
0.0279,-2.68821716309,-0.167487806966,170.288085938,0.0013029822153
0.028,-2.76412963867,-0.170935893632,170.8984375,0.00137854586632
0.0281,-2.83718109131,-0.174912065643,171.508789062,0.00121195077193
0.0282,-2.90393829346,-0.177863130807,172.119140625,0.000417561434383
0.0283,-2.97069549561,-0.181342281317,172.729492188,0.0014878094079
0.0284,-3.03745269775,-0.185287389484,173.33984375,0.0027177663191
0.0285,-3.10134887695,-0.188269518492,173.950195312,0.00295498274803
0.0286,-3.15895080566,-0.190723562155,174.560546875,0.00231704690277
0.0287,-3.21979522705,-0.194202712664,175.170898438,0.00168154857072
0.0288,-3.28044891357,-0.197153777829,175.78125,0.00142059518345
0.0289,-3.33213806152,-0.199638885335,176.391601562,0.00132796162826
0.029,-3.38687896729,-0.201626971341,177.001953125,0.00140246932369
0.0291,-3.43837738037,-0.204081015004,177.612304688,0.00127096796916
