"Latest: Time (s)","Latest: Potential (V)","Latest: Current (A)","FFT: Time - Frequency (Hz)","FFT: Potential - FFT"
0,-2.7946472168,-0.130894598929,0,0.0188075559509
0.0001,-2.88257598877,-0.1363307716,0.6103515625,0.883467600977
0.0002,-2.96459197998,-0.141766944271,1.220703125,0.93807624868
0.0003,-3.04660797119,-0.147700138443,1.8310546875,0.382765561124
0.0004,-3.12557220459,-0.152639289613,2.44140625,0.0262339278998
0.0005,-3.20148468018,-0.158075462284,3.0517578125,0.0504695754881
0.0006,-3.27453613281,-0.163045677298,3.662109375,0.0205124576043
0.0007,-3.34434509277,-0.167487806966,4.2724609375,0.00886517048133
0.0008,-3.40805053711,-0.171929936635,4.8828125,0.0126149796258
0.0009,-3.4688949585,-0.176403130147,5.4931640625,0.000693228686756
0.001,-3.53870391846,-0.180348238314,6.103515625,0.0048931251852
0.0011,-3.59039306641,-0.185287389484,6.7138671875,0.0027322418627
0.0012,-3.64189147949,-0.189263561494,7.32421875,0.00205589677213
0.0013,-3.69358062744,-0.19271164816,7.9345703125,0.0080967952644
0.0014,-3.73916625977,-0.19619079867,8.544921875,0.00823683028172
0.0015,-3.78170013428,-0.199638885335,9.1552734375,0.00668817044492
0.0016,-3.82118225098,-0.202621014344,9.765625,0.00597668405922
0.0017,-3.85150909424,-0.205075058007,10.3759765625,0.00305466693494
0.0018,-3.89404296875,-0.207560165513,10.986328125,0.00169503597743
0.0019,-3.91826629639,-0.210014209176,11.5966796875,0.00291378483995
0.002,-3.94268035889,-0.212499316683,12.20703125,0.00230766969164
0.0021,-3.96690368652,-0.214487402689,12.8173828125,0.00442766161209
0.0022,-3.9852142334,-0.215978467193,13.427734375,0.00553106433242
0.0023,-3.99131774902,-0.216941446351,14.0380859375,0.00305872085897
0.0024,-4.0002822876,-0.218432510856,14.6484375,0.00233141102348
0.0025,-4.00638580322,-0.218929532357,15.2587890625,0.00302015739905
0.0026,-4.00638580322,-0.220420596861,15.869140625,0.00148275797509
0.0027,-4.0002822876,-0.220420596861,16.4794921875,0.001904172077
0.0028,-3.99723052979,-0.220917618362,17.08984375,0.00142007528035
0.0029,-3.9852142334,-0.220917618362,17.7001953125,0.00191884544118
0.003,-3.97300720215,-0.220917618362,18.310546875,0.00297614484416
0.0031,-3.95183563232,-0.220420596861,18.9208984375,0.00290329943205
0.0032,-3.93047332764,-0.21992357536,19.53125,0.00261842008507
0.0033,-3.90319824219,-0.218432510856,20.1416015625,0.00198912549658
0.0034,-3.86981964111,-0.217438467853,20.751953125,0.00136554594927
0.0035,-3.83338928223,-0.215978467193,21.3623046875,0.00344738939063
0.0036,-3.79676818848,-0.21498442419,21.97265625,0.00220775049388
0.0037,-3.75442504883,-0.212996338184,22.5830078125,0.00288010211387
0.0038,-3.71189117432,-0.210511230678,23.193359375,0.00414566695858
0.0039,-3.66325378418,-0.208554208516,23.8037109375,0.0040858285211
0.004,-3.61156463623,-0.205572079508,24.4140625,0.000630892081165
0.0041,-3.55682373047,-0.203583993502,25.0244140625,0.00325313011278
0.0042,-3.49311828613,-0.201129949839,25.634765625,0.00614592247084
0.0043,-3.43246459961,-0.197153777829,26.2451171875,0.00456230302355
0.0044,-3.37162017822,-0.194202712664,26.85546875,0.00522744803059
0.0045,-3.30486297607,-0.190723562155,27.4658203125,0.00863271591318
0.0046,-3.2320022583,-0.187275475489,28.076171875,0.00307632973584
0.0047,-3.15608978271,-0.181839302818,28.6865234375,0.00306848940695
0.0048,-3.07693481445,-0.177863130807,29.296875,0.00567634595368
0.0049,-3.00102233887,-0.17391802264,29.9072265625,0.00356327021982
0.005,-2.91614532471,-0.169475892972,30.517578125,0.00435914391847
0.0051,-2.8341293335,-0.165002699459,31.1279296875,0.00654114327054
0.0052,-2.74600982666,-0.160560569791,31.73828125,0.00868576073474
0.0053,-2.64568328857,-0.155621418621,32.3486328125,0.00795026331212
0.0054,-2.5577545166,-0.150682267451,32.958984375,0.00165553851501
0.0055,-2.46047973633,-0.145215030936,33.5693359375,0.0124644581378
0.0056,-2.36015319824,-0.139778858265,34.1796875,0.00538143115245
0.0057,-2.25391387939,-0.134839707096,34.7900390625,0.0088894572265
0.0058,-2.15072631836,-0.128409491422,35.400390625,0.0131367123915
0.0059,-2.04734802246,-0.122973318751,36.0107421875,0.00357974765542
0.006,-1.9380569458,-0.115549060074,36.62109375,0.0216532746312
0.0061,-1.83181762695,-0.109615865902,37.2314453125,0.0147901974598
0.0062,-1.71642303467,-0.103682671729,37.841796875,0.012373507019
0.0063,-1.60694122314,-0.0972524560552,38.4521484375,0.0340678679617
0.0064,-1.48849487305,-0.0913192618827,39.0625,0.00509767777632
0.0065,-1.37310028076,-0.0843920247075,39.6728515625,0.0367977501762
0.0066,-1.25770568848,-0.0779618090337,40.283203125,0.0421036103863
0.0067,-1.13315582275,-0.0710345718585,40.8935546875,0.0211944667974
0.0068,-1.01470947266,-0.0646043561846,41.50390625,0.0806423426973
0.0069,-0.896263122559,-0.0571800975081,42.1142578125,0.0377821119724
0.007,-0.768661499023,-0.0502528603329,42.724609375,0.100940424525
0.0071,-0.644302368164,-0.0433256231577,43.3349609375,0.146700328108
0.0072,-0.522804260254,-0.0368954074838,43.9453125,0.0386883626655
0.0073,-0.401306152344,-0.0289741273059,44.5556640625,0.311409463104
0.0074,-0.273704528809,-0.0220468901307,45.166015625,0.224718729184
0.0075,-0.152206420898,-0.0151196529555,45.7763671875,0.444298578831
0.0076,-0.0307083129883,-0.00772645812276,46.38671875,1.05823397427
0.0077,0.0938415527344,-0.000799220947556,46.9970703125,0.0139821681018
0.0078,0.215339660645,0.00612801622765,47.607421875,4.10734736783
0.0079,0.336837768555,0.0130552534029,48.2177734375,8.03121852728
0.008,0.467491149902,0.0209765335808,48.828125,57.8270792148
0.0081,0.588989257812,0.027903770756,49.4384765625,125.52628404
0.0082,0.70743560791,0.0348310079312,50.048828125,154.177593137
0.0083,0.834846496582,0.0422552666078,50.6591796875,115.641294102
0.0084,0.95329284668,0.049182503783,51.26953125,47.3326547424
0.0085,1.07173919678,0.0566067624595,51.8798828125,3.76563438538
0.0086,1.1962890625,0.0635029357909,52.490234375,3.79385886869
0.0087,1.31168365479,0.0714242159688,53.1005859375,0.572335785847
0.0088,1.42726898193,0.078351453144,53.7109375,0.812137890435
0.0089,1.53961181641,0.0852786903192,54.3212890625,0.546866418203
0.009,1.65500640869,0.0917089059931,54.931640625,0.0904048156033
0.0091,1.76429748535,0.0986361431683,55.5419921875,0.294579366855
0.0092,1.87358856201,0.105563380343,56.15234375,0.101202042611
0.0093,1.98612213135,0.111993596017,56.7626953125,0.109501404734
0.0094,2.08625793457,0.118920833193,57.373046875,0.11605336748
0.0095,2.19249725342,0.125351048866,57.9833984375,0.00680004240869
0.0096,2.28977203369,0.131284243039,58.59375,0.0703506184268
0.0097,2.39906311035,0.138708501715,59.2041015625,0.0495862022587
0.0098,2.49328613281,0.144641695888,59.814453125,0.0453279220988
0.0099,2.58445739746,0.15057489006,60.4248046875,0.0268508355038
0.01,2.67543792725,0.157005105734,61.03515625,0.0135145144292
0.0101,2.76660919189,0.162441278405,61.6455078125,0.0303919138538
0.0102,2.85472869873,0.167380429575,62.255859375,0.0199257958967
0.0103,2.93674468994,0.173344687591,62.8662109375,0.00960251440653
0.0104,3.01265716553,0.178780860263,63.4765625,0.0226721627469
0.0105,3.09162139893,0.183222989931,64.0869140625,0.00503337380279
0.0106,3.1644821167,0.188162141101,64.697265625,0.0123727863796
0.0107,3.23429107666,0.193101292271,65.3076171875,0.0112372398204
0.0108,3.29818725586,0.198568528785,65.91796875,0.0037164328214
0.0109,3.36494445801,0.203010658454,66.5283203125,0.011855258808
0.011,3.42273712158,0.207452788122,67.138671875,0.00339625425794
0.0111,3.48033905029,0.210931938632,67.7490234375,0.00526169899692
0.0112,3.53813171387,0.214877046799,68.359375,0.00799704803747
0.0113,3.58963012695,0.21885321881,68.9697265625,0.00166314537663
0.0114,3.63521575928,0.222301305475,69.580078125,0.00515705494902
0.0115,3.67774963379,0.225283434484,70.1904296875,0.00559188931039
0.0116,3.71417999268,0.228234499648,70.80078125,0.00585041658701
0.0117,3.74755859375,0.230719607155,71.4111328125,0.00251571126914
0.0118,3.77807617188,0.233670672319,72.021484375,0.00355327796341
0.0119,3.80535125732,0.236155779826,72.6318359375,0.00663848682716
0.012,3.82957458496,0.238143865831,73.2421875,0.00123010981219
0.0121,3.84788513184,0.240100887993,73.8525390625,0.000907205178177
0.0122,3.86905670166,0.242088973998,74.462890625,0.00355580928729
0.0123,3.8782119751,0.243083017001,75.0732421875,0.00165332846824
0.0124,3.89347076416,0.244077060004,75.68359375,0.00292192264622
0.0125,3.89652252197,0.245537060664,76.2939453125,0.00186336276233
0.0126,3.89652252197,0.246034082165,76.904296875,0.00180431825672
0.0127,3.89347076416,0.246034082165,77.5146484375,0.00406198492406
0.0128,3.89041900635,0.246531103667,78.125,0.00429384801099
0.0129,3.87516021729,0.247028125168,78.7353515625,0.00370231976296
0.013,3.85704040527,0.246531103667,79.345703125,0.000829419778608
0.0131,3.8387298584,0.246034082165,79.9560546875,0.000954565329896
0.0132,3.81755828857,0.245040039163,80.56640625,0.00281112110128
0.0133,3.79314422607,0.244574081505,81.1767578125,0.000785537717568
0.0134,3.76281738281,0.243580038502,81.787109375,0.000540205990422
0.0135,3.72943878174,0.242088973998,82.3974609375,0.0014746700186
0.0136,3.68995666504,0.240100887993,83.0078125,0.000529233849842
0.0137,3.65047454834,0.238609823489,83.6181640625,0.00141598435432
0.0138,3.60794067383,0.236652801327,84.228515625,0.00164742850298
0.0139,3.55930328369,0.23416769382,84.8388671875,0.0017510086452
0.014,3.50761413574,0.232179607815,85.44921875,0.00321108917181
0.0141,3.44696044922,0.229228542651,86.0595703125,0.00331954143275
0.0142,3.38916778564,0.226246413642,86.669921875,0.00295273923453
0.0143,3.33156585693,0.223295348478,87.2802734375,0.00346800243849
0.0144,3.26461791992,0.219816197969,87.890625,0.00193460602479
0.0145,3.19480895996,0.216865132804,88.5009765625,0.00214066223218
0.0146,3.125,0.212888960793,89.111328125,0.00135517589095
0.0147,3.04908752441,0.208943852626,89.7216796875,0.000235409872239
0.0148,2.97012329102,0.204998744459,90.33203125,0.00160474532737
0.0149,2.89115905762,0.201022572448,90.9423828125,0.0016549775583
0.015,2.80914306641,0.19658044278,91.552734375,0.00171701517801
0.0151,2.72102355957,0.191144270109,92.1630859375,0.000633590615814
0.0152,2.62985229492,0.186671076597,92.7734375,0.000739075997146
0.0153,2.53582000732,0.181234903926,93.3837890625,0.00181655771368
0.0154,2.44464874268,0.176295752756,93.994140625,0.000102285092911
0.0155,2.3473739624,0.170859580085,94.6044921875,0.00274657523088
0.0156,2.23503112793,0.165423407414,95.21484375,0.00244070266962
0.0157,2.13794708252,0.160484256244,95.8251953125,0.0020982079671
0.0158,2.03456878662,0.154519998227,96.435546875,0.00393347828985
0.0159,1.92527770996,0.148586804055,97.0458984375,0.00160410970044
0.016,1.8159866333,0.143150631384,97.65625,0.00366234681871
0.0161,1.70669555664,0.13672041571,98.2666015625,0.0160439819498
0.0162,1.59721374512,0.129793178535,98.876953125,0.0854474297127
0.0163,1.47876739502,0.123859984362,99.4873046875,0.173738052175
0.0164,1.36337280273,0.117429768688,100.09765625,0.205653832661
0.0165,1.24797821045,0.110502531513,100.708007812,0.149377743111
0.0166,1.12648010254,0.104072315839,101.318359375,0.0589467538257
0.0167,1.01108551025,0.0976421001656,101.928710938,0.00501646160708
0.0168,0.892639160156,0.0912118844917,102.5390625,0.00414725453982
0.0169,0.765037536621,0.0837876258151,103.149414062,0.00302779788193
0.017,0.646591186523,0.0773574101413,103.759765625,0.0028079938902
0.0171,0.525093078613,0.0699331514647,104.370117188,0.00184771712388
0.0172,0.400543212891,0.0620429351306,104.98046875,0.000399503595973
0.0173,0.275993347168,0.0556127194568,105.590820312,0.000657512931551
0.0174,0.151634216309,0.0481884607802,106.201171875,0.000524022134361
0.0175,0.0270843505859,0.041261223605,106.811523438,0.000358480711647
0.0176,-0.0913619995117,0.0343339864298,107.421875,0.000831021371907
0.0177,-0.215911865234,0.0269097277533,108.032226562,0.001395443122
0.0178,-0.340461730957,0.0199824905781,108.642578125,0.00234251547466
0.0179,-0.468063354492,0.0125582319015,109.252929688,0.00306759177614
0.018,-0.589561462402,0.00513397322493,109.86328125,0.00276946955286
0.0181,-0.711059570312,-0.00179326395028,110.473632812,0.00173897637211
0.0182,-0.838661193848,-0.00918645878301,111.083984375,0.00169391640726
0.0183,-0.96321105957,-0.0166107174596,111.694335938,0.0019006449655
0.0184,-1.08165740967,-0.0230409331334,112.3046875,0.00177200699503
0.0185,-1.20010375977,-0.0299681703086,112.915039062,0.00214418534628
0.0186,-1.32160186768,-0.0373924289852,113.525390625,0.00256265145171
0.0187,-1.43699645996,-0.0448166876618,114.135742188,0.00208333075786
0.0188,-1.54933929443,-0.0512469033356,114.74609375,0.00163109270679
0.0189,-1.66778564453,-0.0591681835135,115.356445312,0.00170024770114
0.019,-1.780128479,-0.0655983991874,115.966796875,0.0016126903322
0.0191,-1.89247131348,-0.0725256363626,116.577148438,0.00165716550906
0.0192,-2.00176239014,-0.0794528735378,117.1875,0.00165926189166
0.0193,-2.10819244385,-0.0858830892116,117.797851562,0.00157357543978
0.0194,-2.2144317627,-0.0923133048855,118.408203125,0.00107522023644
0.0195,-2.31475830078,-0.0987435205593,119.018554688,0.000418075037043
0.0196,-2.42099761963,-0.105173736233,119.62890625,0.00170919177501
0.0197,-2.51522064209,-0.111603951907,120.239257812,0.00294151346019
0.0198,-2.6123046875,-0.117537146079,120.849609375,0.00306664759539
0.0199,-2.70347595215,-0.124961404756,121.459960938,0.00221798851585
0.02,-2.79750823975,-0.130397577427,122.0703125,0.00076833657893
0.0201,-2.88562774658,-0.1363307716,122.680664062,0.00117173851006
0.0202,-2.97069549561,-0.141766944271,123.291015625,0.00231703583296
0.0203,-3.04355621338,-0.147203116942,123.901367188,0.00289617412349
0.0204,-3.12557220459,-0.152639289613,124.51171875,0.00226233334187
0.0205,-3.20453643799,-0.157112483125,125.122070312,0.000990038085721
0.0206,-3.27453613281,-0.162051634295,125.732421875,0.00162460638933
0.0207,-3.34129333496,-0.167487806966,126.342773438,0.00187571377475
0.0208,-3.41110229492,-0.171432915133,126.953125,0.00166864853879
0.0209,-3.4688949585,-0.176403130147,127.563476562,0.00121225746048
0.021,-3.53565216064,-0.180348238314,128.173828125,0.00029492493786
0.0211,-3.59039306641,-0.184293346481,128.784179688,0.001162566598
0.0212,-3.6449432373,-0.188766539993,129.39453125,0.0023354241905
0.0213,-3.69358062744,-0.19271164816,130.004882812,0.00239585678564
0.0214,-3.73916625977,-0.195693777168,130.615234375,0.00143940304319
0.0215,-3.77864837646,-0.198644842333,131.225585938,0.000528935033089
0.0216,-3.81813049316,-0.201626971341,131.8359375,0.000953487794772
0.0217,-3.85456085205,-0.204578036505,132.446289062,0.00111035034627
0.0218,-3.8818359375,-0.207063144012,133.056640625,0.00105891557124
0.0219,-3.91826629639,-0.209548251519,133.666992188,0.0010539821833
0.022,-3.9457321167,-0.21150527368,134.27734375,0.00118122272394
0.0221,-3.96385192871,-0.213493359686,134.887695312,0.000906813145329
0.0222,-3.97911071777,-0.215481445691,135.498046875,0.000330290413449
0.0223,-3.99131774902,-0.21644442485,136.108398438,0.000168976598925
0.0224,-4.00333404541,-0.217935489354,136.71875,0.000167626320874
0.0225,-4.00943756104,-0.218929532357,137.329101562,0.000242030307327
0.0226,-4.00333404541,-0.21992357536,137.939453125,0.000442748535906
0.0227,-4.0002822876,-0.219426553858,138.549804688,0.000549698887692
0.0228,-3.99723052979,-0.220420596861,139.16015625,0.000824288026444
0.0229,-3.98826599121,-0.21992357536,139.770507812,0.0010357561683
0.023,-3.96690368652,-0.21992357536,140.380859375,0.00122253812136
0.0231,-3.95469665527,-0.21992357536,140.991210938,0.0016983926488
0.0232,-3.93047332764,-0.218929532357,141.6015625,0.00256522818793
0.0233,-3.90319824219,-0.217935489354,142.211914062,0.00356247032762
0.0234,-3.86981964111,-0.216941446351,142.822265625,0.00427938590056
0.0235,-3.83338928223,-0.21498442419,143.432617188,0.0043171639113
0.0236,-3.79676818848,-0.213493359686,144.04296875,0.0036426530263
0.0237,-3.75137329102,-0.212002295182,144.653320312,0.00297986421733
0.0238,-3.71189117432,-0.210014209176,145.263671875,0.00264820806473
0.0239,-3.66020202637,-0.207560165513,145.874023438,0.00160548583882
0.024,-3.61461639404,-0.205572079508,146.484375,0.00162960235603
0.0241,-3.55987548828,-0.202621014344,147.094726562,0.00237960108949
0.0242,-3.49617004395,-0.199638885335,147.705078125,0.00395860843242
0.0243,-3.43246459961,-0.197153777829,148.315429688,0.0126135162037
0.0244,-3.37162017822,-0.193208669662,148.92578125,0.0627047253434
0.0245,-3.30181121826,-0.189760582996,149.536132812,0.121434786738
0.0246,-3.2320022583,-0.186281432486,150.146484375,0.136786801976
0.0247,-3.15895080566,-0.181839302818,150.756835938,0.0929532595361
0.0248,-3.07998657227,-0.177366109306,151.3671875,0.031207515222
0.0249,-3.00102233887,-0.173421001139,151.977539062,0.00438069457511
0.025,-2.92205810547,-0.16897887147,152.587890625,0.00680571394549
0.0251,-2.8341293335,-0.164505677958,153.198242188,0.00253831540744
0.0252,-2.74295806885,-0.159566526788,153.80859375,0.00290731485957
0.0253,-2.64873504639,-0.154627375618,154.418945312,0.00395880391949
0.0254,-2.55470275879,-0.149688224449,155.029296875,0.00326362000505
0.0255,-2.45742797852,-0.144718009435,155.639648438,0.00257033296319
0.0256,-2.36320495605,-0.139281836764,156.25,0.00216845308527
0.0257,-2.25391387939,-0.133348642591,156.860351562,0.00183990412148
0.0258,-2.15377807617,-0.12791246992,157.470703125,0.00293683079651
0.0259,-2.05039978027,-0.122476297249,158.081054688,0.00453834901998
0.026,-1.9380569458,-0.115052038573,158.69140625,0.00581491319307
0.0261,-1.83181762695,-0.1091188444,159.301757812,0.00689474039145
0.0262,-1.71947479248,-0.102688628726,159.912109375,0.0077373208932
0.0263,-1.60694122314,-0.0967554345539,160.522460938,0.00805510670083
0.0264,-1.48544311523,-0.09032521888,161.1328125,0.00779666196326
0.0265,-1.37615203857,-0.0833979817048,161.743164062,0.00643739070092
0.0266,-1.25770568848,-0.0774647875323,162.353515625,0.00523894761808
0.0267,-1.13315582275,-0.0710345718585,162.963867188,0.00525799373529
0.0268,-1.01470947266,-0.0641073346833,163.57421875,0.0053879979164
0.0269,-0.896263122559,-0.0561860545054,164.184570312,0.00613657062013
0.027,-0.765609741211,-0.0497558388315,164.794921875,0.00727333999178
0.0271,-0.644302368164,-0.0428286016563,165.405273438,0.00619729950869
0.0272,-0.522804260254,-0.0354043429797,166.015625,0.00201315533155
0.0273,-0.404357910156,-0.0284771058045,166.625976562,0.00399577489404
0.0274,-0.273704528809,-0.0215498686293,167.236328125,0.00728731248465
0.0275,-0.152206420898,-0.014653695298,167.846679688,0.00826715185194
0.0276,-0.0307083129883,-0.00772645812276,168.45703125,0.009147171381
0.0277,0.0907897949219,-0.000302199446196,169.067382812,0.00834278122218
0.0278,0.218391418457,0.00662503772901,169.677734375,0.00495432778117
0.0279,0.336837768555,0.0135522749042,170.288085938,0.00139122780724
0.028,0.46443939209,0.0214735550821,170.8984375,0.000561672589118
0.0281,0.588989257812,0.0288978137587,171.508789062,0.000574137175815
0.0282,0.70743560791,0.0353280294325,172.119140625,0.00124037903624
0.0283,0.834846496582,0.0427522881091,172.729492188,0.00219313798413
0.0284,0.95329284668,0.0501454829418,173.33984375,0.00319416870915
0.0285,1.07173919678,0.0575697416184,173.950195312,0.00400420358004
0.0286,1.19018554688,0.0639999572923,174.560546875,0.00369447063642
0.0287,1.30882263184,0.0719212374702,175.170898438,0.00217424339768
0.0288,1.42421722412,0.0788484746454,175.78125,0.00106432153781
0.0289,1.53656005859,0.0857757118206,176.391601562,0.00112191789656
0.029,1.65500640869,0.0927029489958,177.001953125,0.00166240798812
