"Latest: Time (s)","Latest: Potential (V)","Latest: Current (A)","FFT: Time - Frequency (Hz)","FFT: Potential - FFT"
0,-2.81887054443,-0.179354195311,0,0.0204750064539
0.0001,-2.70347595215,-0.174912065643,0.6103515625,0.727386363706
0.0002,-2.59113311768,-0.170935893632,1.220703125,0.772817137779
0.0003,-2.47859954834,-0.165996742462,1.8310546875,0.315592950155
0.0004,-2.36015319824,-0.161057591292,2.44140625,0.0228500874897
0.0005,-2.23579406738,-0.155621418621,3.0517578125,0.0451900585108
0.0006,-2.11124420166,-0.150682267451,3.662109375,0.0113676930144
0.0007,-1.98364257812,-0.145215030936,4.2724609375,0.00328853801278
0.0008,-1.85298919678,-0.139281836764,4.8828125,0.0126831906565
0.0009,-1.71642303467,-0.133845664093,5.4931640625,0.0024692063126
0.001,-1.58271789551,-0.126421405416,6.103515625,0.0064045097437
0.0011,-1.44004821777,-0.118531189082,6.7138671875,0.000637814274402
0.0012,-1.30634307861,-0.112100973408,7.32421875,0.00295392166599
0.0013,-1.16062164307,-0.105670757735,7.9345703125,0.00947812686814
0.0014,-1.01470947266,-0.098246499058,8.544921875,0.0100981872624
0.0015,-0.875091552734,-0.0918162833841,9.1552734375,0.00915294341876
0.0016,-0.72021484375,-0.0838950032062,9.765625,0.00785833933023
0.0017,-0.57430267334,-0.076967766031,10.3759765625,0.00468123891616
0.0018,-0.42552947998,-0.0695435073544,10.986328125,0.0042346308875
0.0019,-0.276756286621,-0.0616222271765,11.5966796875,0.00310861285067
0.002,-0.127792358398,-0.053234989341,12.20703125,0.00213494017392
0.0021,0.0179290771484,-0.0453137091631,12.8173828125,0.000890181425094
0.0022,0.166702270508,-0.0378894504865,13.427734375,0.00172445443115
0.0023,0.312614440918,-0.0299681703086,14.0380859375,0.00209616191025
0.0024,0.461387634277,-0.0215498686293,14.6484375,0.00233772063605
0.0025,0.607109069824,-0.0136596522952,15.2587890625,0.00144123855985
0.0026,0.755882263184,-0.00524135061596,15.869140625,0.000828032388882
0.0027,0.904846191406,0.00267992956196,16.4794921875,0.00246286984351
0.0028,1.04446411133,0.0110982312412,17.08984375,0.00154671553647
0.0029,1.19323730469,0.0189884475753,17.7001953125,0.00306616296522
0.003,1.33304595947,0.0274067492546,18.310546875,0.0045852426029
0.0031,1.46675109863,0.0358250509339,18.9208984375,0.00387339292359
0.0032,1.61247253418,0.043715267268,19.53125,0.00240158599471
0.0033,1.74312591553,0.0516365474459,20.1416015625,0.00260580993158
0.0034,1.87358856201,0.0600548491252,20.751953125,0.00218707702599
0.0035,2.00729370117,0.0684731508045,21.3623046875,0.000560576652016
0.0036,2.13184356689,0.0768603886399,21.97265625,0.000652992674119
0.0037,2.25028991699,0.0842846473165,22.5830078125,0.000739881634382
0.0038,2.37789154053,0.0922059274944,23.193359375,0.00122280290381
0.0039,2.49328613281,0.100127207672,23.8037109375,0.0029679257007
0.004,2.60257720947,0.107551466349,24.4140625,0.00431958749154
0.0041,2.71186828613,0.114975725025,25.0244140625,0.00224451185603
0.0042,2.81829833984,0.121871898357,25.634765625,0.00219007905857
0.0043,2.91843414307,0.129296157033,26.2451171875,0.00268522443278
0.0044,3.01570892334,0.137217437211,26.85546875,0.0037041115943
0.0045,3.10668945312,0.143647652885,27.4658203125,0.00241340830059
0.0046,3.19175720215,0.15057489006,28.076171875,0.00343572531454
0.0047,3.27682495117,0.157005105734,28.6865234375,0.00298709013911
0.0048,3.34968566895,0.162938299907,29.296875,0.00331237852193
0.0049,3.42273712158,0.169368515581,29.9072265625,0.00283782127846
0.005,3.49254608154,0.174804688252,30.517578125,0.000189902501952
0.0051,3.55930328369,0.180240860923,31.1279296875,0.00213919940489
0.0052,3.61709594727,0.186205118939,31.73828125,0.00187194008125
0.0053,3.67164611816,0.191144270109,32.3486328125,0.00268403636486
0.0054,3.71723175049,0.19658044278,32.958984375,0.00247610264189
0.0055,3.759765625,0.201022572448,33.5693359375,0.00348110559746
0.0056,3.79619598389,0.205961723618,34.1796875,0.000601433964474
0.0057,3.82652282715,0.209440874128,34.7900390625,0.00096612520337
0.0058,3.85398864746,0.213385982295,35.400390625,0.00620136829663
0.0059,3.87210845947,0.216865132804,36.0107421875,0.00248908839052
0.006,3.89347076416,0.219816197969,36.62109375,0.00159248881474
0.0061,3.89957427979,0.222798326977,37.2314453125,0.00537083443487
0.0062,3.90548706055,0.225749392141,37.841796875,0.00497574747027
0.0063,3.90243530273,0.227240456645,38.4521484375,0.00271005430964
0.0064,3.89347076416,0.229725564152,39.0625,0.0034144546306
0.0065,3.8782119751,0.231713650157,39.6728515625,0.00699222464938
0.0066,3.86009216309,0.232676629316,40.283203125,0.00574472858541
0.0067,3.83262634277,0.233670672319,40.8935546875,0.00465351256971
0.0068,3.80535125732,0.23416769382,41.50390625,0.00886602008816
0.0069,3.76586914062,0.234664715322,42.1142578125,0.00308206706203
0.007,3.72638702393,0.234664715322,42.724609375,0.00696155574978
0.0071,3.68385314941,0.234664715322,43.3349609375,0.00983328864785
0.0072,3.62911224365,0.23416769382,43.9453125,0.00246953157939
0.0073,3.57456207275,0.233173650818,44.5556640625,0.0135131106939
0.0074,3.51371765137,0.231713650157,45.166015625,0.00649937045555
0.0075,3.44390869141,0.230222585653,45.7763671875,0.00870586714145
0.0076,3.37104797363,0.228731521149,46.38671875,0.0231836782277
0.0077,3.29513549805,0.226246413642,46.9970703125,0.0075915609277
0.0078,3.21617126465,0.224289391481,47.607421875,0.0178845395327
0.0079,3.12805175781,0.221307262473,48.2177734375,0.0230731641272
0.008,3.03993225098,0.218356197308,48.828125,0.0191090582148
0.0081,2.94570922852,0.214877046799,49.4384765625,0.0415033680073
0.0082,2.84862518311,0.210931938632,50.048828125,0.00895925248222
0.0083,2.74524688721,0.207452788122,50.6591796875,0.0554120303227
0.0084,2.62985229492,0.203010658454,51.26953125,0.0553035844518
0.0085,2.52361297607,0.199065550287,51.8798828125,0.0348043381972
0.0086,2.4112701416,0.193598313772,52.490234375,0.117736419387
0.0087,2.28366851807,0.188659162602,53.1005859375,0.0474377470199
0.0088,2.16217041016,0.183720011432,53.7109375,0.159377000214
0.0089,2.04067230225,0.178283838761,54.3212890625,0.23513148221
0.009,1.9100189209,0.17284766609,54.931640625,0.0828307662288
0.0091,1.7765045166,0.166914471918,55.5419921875,0.581305996636
0.0092,1.64585113525,0.160484256244,56.15234375,0.426431560079
0.0093,1.50623321533,0.154519998227,56.7626953125,1.08504093366
0.0094,1.36642456055,0.148089782554,57.373046875,2.93194487627
0.0095,1.22966766357,0.14165956688,57.9833984375,0.401873466806
0.0096,1.08394622803,0.134732329705,58.59375,34.3241006353
0.0097,0.941276550293,0.12684211337,59.2041015625,101.006811378
0.0098,0.801467895508,0.119914876195,59.814453125,151.264489929
0.0099,0.643539428711,0.112490617519,60.4248046875,137.395905973
0.01,0.503921508789,0.105563380343,61.03515625,73.1512100411
0.0101,0.352096557617,0.0981391216669,61.6455078125,15.657640301
0.0102,0.203132629395,0.090217841489,62.255859375,3.84779468904
0.0103,0.0574111938477,0.0823276251549,62.8662109375,0.963343721306
0.0104,-0.0883102416992,0.074406344977,63.4765625,1.27162322025
0.0105,-0.237274169922,0.0659880432977,64.0869140625,0.209707882721
0.0106,-0.382995605469,0.0585637846211,64.697265625,0.402617427283
0.0107,-0.534820556641,0.0501454829418,65.3076171875,0.282917186635
0.0108,-0.683784484863,0.0417582451064,65.91796875,0.0627260349996
0.0109,-0.847625732422,0.0333399434271,66.5283203125,0.178912972754
0.011,-0.97827911377,0.0254186632492,67.138671875,0.0600743690209
0.0111,-1.12400054932,0.0175284469151,67.7490234375,0.0769545364312
0.0112,-1.26991271973,0.00960716673717,68.359375,0.0767028203968
0.0113,-1.40953063965,0.00168588655924,68.9697265625,0.00612907430909
0.0114,-1.54933929443,-0.00673241512004,69.580078125,0.0546983820499
0.0115,-1.69200897217,-0.0151196529555,70.1904296875,0.0273907525751
0.0116,-1.82571411133,-0.0230409331334,70.80078125,0.0242865116799
0.0117,-1.95941925049,-0.0309622133113,71.4111328125,0.030641970103
0.0118,-2.08683013916,-0.0388834934893,72.021484375,0.00347855778136
0.0119,-2.2144317627,-0.0468047736672,72.6318359375,0.0227458039087
0.012,-2.34203338623,-0.0546949900013,73.2421875,0.0152892674936
0.0121,-2.47859954834,-0.0646043561846,73.8525390625,0.00922905908644
0.0122,-2.57587432861,-0.0710345718585,74.462890625,0.0151679819497
0.0123,-2.68821716309,-0.0789558520364,75.0732421875,0.00446819438961
0.0124,-2.80055999756,-0.0863490468691,75.68359375,0.0112076956112
0.0125,-2.90699005127,-0.0937733055457,76.2939453125,0.00895260345029
0.0126,-3.00712585449,-0.101197564222,76.904296875,0.00287659485858
0.0127,-3.10440063477,-0.107627779896,77.5146484375,0.00913570735387
0.0128,-3.19557189941,-0.114555017071,78.125,0.00343375096332
0.0129,-3.28350067139,-0.122476297249,78.7353515625,0.00591424261591
0.013,-3.3655166626,-0.129403534424,79.345703125,0.00586750192281
0.0131,-3.44142913818,-0.135336728597,79.9560546875,0.00312732092278
0.0132,-3.52039337158,-0.141269922769,80.56640625,0.00660615313117
0.0133,-3.59039306641,-0.147203116942,81.1767578125,0.00334150061831
0.0134,-3.65104675293,-0.153136311114,81.787109375,0.00298186383918
0.0135,-3.7088394165,-0.158572483786,82.3974609375,0.0054932581079
0.0136,-3.76644134521,-0.163045677298,83.0078125,0.00270174559584
0.0137,-3.80897521973,-0.168481849969,83.6181640625,0.00267598969919
0.0138,-3.85456085205,-0.172923979637,84.228515625,0.003758657166
0.0139,-3.90014648438,-0.177366109306,84.8388671875,0.00172070209305
0.014,-3.93047332764,-0.181342281317,85.44921875,0.00346481160386
0.0141,-3.9608001709,-0.186281432486,86.0595703125,0.00119782122394
0.0142,-3.98216247559,-0.189760582996,86.669921875,0.00358323497391
0.0143,-3.99723052979,-0.193208669662,87.2802734375,0.000624964990728
0.0144,-4.00943756104,-0.19619079867,87.890625,0.0014794233152
0.0145,-4.01248931885,-0.198644842333,88.5009765625,0.00356014483986
0.0146,-4.00943756104,-0.201129949839,89.111328125,0.000644875773882
0.0147,-4.00638580322,-0.203118035845,89.7216796875,0.000533815890685
0.0148,-3.99417877197,-0.205075058007,90.33203125,0.00243688456085
0.0149,-3.97605895996,-0.206566122511,90.9423828125,0.00188311737375
0.015,-3.95469665527,-0.207560165513,91.552734375,0.00191512087682
0.0151,-3.92742156982,-0.208057187015,92.1630859375,0.0029107313943
0.0152,-3.89404296875,-0.209051230017,92.7734375,0.001811298982
0.0153,-3.84540557861,-0.209051230017,93.3837890625,0.00322666894777
0.0154,-3.79981994629,-0.209051230017,93.994140625,0.00314345609735
0.0155,-3.75137329102,-0.208057187015,94.6044921875,0.00500992179332
0.0156,-3.69968414307,-0.207560165513,95.21484375,0.00544784163704
0.0157,-3.63883972168,-0.206069101009,95.8251953125,0.0036225058258
0.0158,-3.57208251953,-0.204578036505,96.435546875,0.000956742756015
0.0159,-3.50532531738,-0.203118035845,97.0458984375,0.00223337697906
0.016,-3.42636108398,-0.201129949839,97.65625,0.00323750082905
0.0161,-3.34739685059,-0.198644842333,98.2666015625,0.00191108074317
0.0162,-3.26232910156,-0.19619079867,98.876953125,0.0028662140559
0.0163,-3.17726135254,-0.193208669662,99.4873046875,0.0038577399078
0.0164,-3.08303833008,-0.190226540653,100.09765625,0.0036440936704
0.0165,-2.98900604248,-0.186778453988,100.708007812,0.00296004276557
0.0166,-2.88562774658,-0.181839302818,101.318359375,0.00160628201025
0.0167,-2.78244018555,-0.177863130807,101.928710938,0.00223094663196
0.0168,-2.66704559326,-0.173421001139,102.5390625,0.00280778268432
0.0169,-2.5577545166,-0.168481849969,103.149414062,0.0034856572421
0.017,-2.44216918945,-0.163542698799,103.759765625,0.00302777738286
0.0171,-2.31475830078,-0.159566526788,104.370117188,0.00150308429985
0.0172,-2.19326019287,-0.153633332616,104.98046875,0.000733827792504
0.0173,-2.06871032715,-0.148694181446,105.590820312,0.00109262335594
0.0174,-1.9380569458,-0.142760987274,106.201171875,0.00377557644642
0.0175,-1.80740356445,-0.1363307716,106.811523438,0.00391335345064
0.0176,-1.67083740234,-0.130397577427,107.421875,0.00180462029585
0.0177,-1.53713226318,-0.123967361753,108.032226562,0.000994103116439
0.0178,-1.39751434326,-0.116046081575,108.642578125,0.000350881723428
0.0179,-1.25770568848,-0.109615865902,109.252929688,0.00124650609859
0.018,-1.11198425293,-0.102688628726,109.86328125,0.00130979164156
0.0181,-0.972175598145,-0.0957613915512,110.473632812,0.000835476257864
0.0182,-0.826454162598,-0.0883371328746,111.083984375,0.00083290823373
0.0183,-0.671577453613,-0.0814098956994,111.694335938,0.00189450973996
0.0184,-0.525665283203,-0.0739856370228,112.3046875,0.00307695116916
0.0185,-0.373840332031,-0.0660954206887,112.915039062,0.00202509254424
0.0186,-0.228118896484,-0.0581741405108,113.525390625,0.001482303746
0.0187,-0.079345703125,-0.0502528603329,114.135742188,0.00206308964161
0.0188,0.0665664672852,-0.042331580155,114.74609375,0.00210121923467
0.0189,0.212287902832,-0.034410299977,115.356445312,0.00193836654453
0.019,0.358009338379,-0.0255260406402,115.966796875,0.00165112480096
0.0191,0.512886047363,-0.0181017819637,116.577148438,0.000479921597328
0.0192,0.655746459961,-0.0101805017857,117.1875,0.0039752510038
0.0193,0.807571411133,-0.0022592216078,117.797851562,0.00638090081595
0.0194,0.95329284668,0.00612801622765,118.408203125,0.0250421443854
0.0195,1.09004974365,0.0145463179069,119.018554688,0.103843498291
0.0196,1.2357711792,0.0224675980849,119.62890625,0.184383386969
0.0197,1.3786315918,0.0303888782628,120.239257812,0.193733869138
0.0198,1.51214599609,0.0382790945969,120.849609375,0.122042601144
0.0199,1.65195465088,0.0476914392789,121.459960938,0.036918559048
0.02,1.78852081299,0.0551156979554,122.0703125,0.00262697440758
0.0201,1.91307067871,0.0630369781334,122.680664062,0.00331987658295
0.0202,2.04372406006,0.0719212374702,123.291015625,0.00118967907892
0.0203,2.16827392578,0.0798425176481,123.901367188,0.000576402001705
0.0204,2.28977203369,0.087763797826,124.51171875,0.00162344698944
0.0205,2.41432189941,0.0951880565026,125.122070312,0.00351689761469
0.0206,2.5297164917,0.103078272837,125.732421875,0.00271310431377
0.0207,2.63900756836,0.110502531513,126.342773438,0.00175298003327
0.0208,2.75135040283,0.11792679019,126.953125,0.00287021313466
0.0209,2.85167694092,0.124854027365,127.563476562,0.00203533746759
0.021,2.94876098633,0.133272329044,128.173828125,0.00170007025059
0.0211,3.04298400879,0.14019956622,128.784179688,0.00282595033017
0.0212,3.13415527344,0.146629781893,129.39453125,0.00441117202029
0.0213,3.21922302246,0.153059997567,130.004882812,0.00564783691746
0.0214,3.29818725586,0.159490213241,130.615234375,0.00530727270701
0.0215,3.37409973145,0.165423407414,131.225585938,0.00332273267021
0.0216,3.44696044922,0.171356601586,131.8359375,0.00372605586382
0.0217,3.51676940918,0.177289795758,132.446289062,0.00543121192511
0.0218,3.57761383057,0.18272596843,133.056640625,0.00486255014877
0.0219,3.63521575928,0.188162141101,133.666992188,0.0027019892683
0.022,3.68385314941,0.193101292271,134.27734375,0.00506517783958
0.0221,3.73249053955,0.199065550287,134.887695312,0.00803527437711
0.0222,3.77197265625,0.203010658454,135.498046875,0.00819422763875
0.0223,3.80535125732,0.207452788122,136.108398438,0.00664493171549
0.0224,3.83567810059,0.211428960133,136.71875,0.00577548713405
0.0225,3.86009216309,0.214877046799,137.329101562,0.00707769091685
0.0226,3.8782119751,0.218356197308,137.939453125,0.00855567812503
0.0227,3.89652252197,0.221307262473,138.549804688,0.00775191766093
0.0228,3.90243530273,0.223792369979,139.16015625,0.00607925238992
0.0229,3.90548706055,0.227240456645,139.770507812,0.00481478137484
0.023,3.89957427979,0.229725564152,140.380859375,0.00384780474637
0.0231,3.89041900635,0.230719607155,140.991210938,0.00400809560643
0.0232,3.86905670166,0.232676629316,141.6015625,0.00512571227404
0.0233,3.85093688965,0.233670672319,142.211914062,0.00601154843973
0.0234,3.82347106934,0.23416769382,142.822265625,0.00494190277532
0.0235,3.79009246826,0.235161736823,143.432617188,0.00237330863819
0.0236,3.75671386719,0.235658758324,144.04296875,0.00190936256719
0.0237,3.71112823486,0.235161736823,144.653320312,0.00226160450428
0.0238,3.66554260254,0.234664715322,145.263671875,0.00162135500906
0.0239,3.61404418945,0.23416769382,145.874023438,0.00123834366326
0.024,3.55319976807,0.233173650818,146.484375,0.0016823714016
0.0241,3.48644256592,0.232179607815,147.094726562,0.00207562149626
0.0242,3.41968536377,0.230222585653,147.705078125,0.00231953996548
0.0243,3.34663391113,0.228234499648,148.315429688,0.00252099369496
0.0244,3.26766967773,0.226246413642,148.92578125,0.00232533415308
0.0245,3.18870544434,0.223295348478,149.536132812,0.00162709580156
0.0246,3.10077667236,0.22031321947,150.146484375,0.000719939137143
0.0247,3.0065536499,0.217859175807,150.756835938,0.00113291704453
0.0248,2.91233062744,0.214380025297,151.3671875,0.00163733672061
0.0249,2.81219482422,0.21043491713,151.977539062,0.000799527708931
0.025,2.70290374756,0.206955766621,152.587890625,0.000951940383854
0.0251,2.59647369385,0.202513636953,153.198242188,0.00188560841747
0.0252,2.48413085938,0.198071507284,153.80859375,0.00174210415499
0.0253,2.36873626709,0.192635334613,154.418945312,0.000892094577755
0.0254,2.24113464355,0.187168098098,155.029296875,0.000565067390182
0.0255,2.11963653564,0.182228946928,155.639648438,0.00138834655244
0.0256,1.99813842773,0.176792774257,156.25,0.00172123761768
0.0257,1.86462402344,0.170859580085,156.860351562,0.00173348002378
0.0258,1.73397064209,0.164926385912,157.470703125,0.00168936724925
0.0259,1.60026550293,0.159490213241,158.081054688,0.00179156284768
0.026,1.46064758301,0.153059997567,158.69140625,0.00243969446084
0.0261,1.32083892822,0.146629781893,159.301757812,0.00331820382904
0.0262,1.18427276611,0.139702544718,159.912109375,0.00333411719247
0.0263,1.0383605957,0.133272329044,160.522460938,0.00210143677247
0.0264,0.892639160156,0.124854027365,161.1328125,0.000738234777574
0.0265,0.746917724609,0.11792679019,161.743164062,0.000801899953966
0.0266,0.601005554199,0.110999553015,162.353515625,0.000989312331477
0.0267,0.455284118652,0.103575294338,162.963867188,0.000428583539882
0.0268,0.300407409668,0.0956540141601,163.57421875,0.00104786708881
0.0269,0.154495239258,0.087763797826,164.184570312,0.002189769901
0.027,0.00877380371094,0.0808365606508,164.794921875,0.00228447894861
0.0271,-0.139999389648,0.0724182589715,165.405273438,0.00155814073863
0.0272,-0.285720825195,0.0639999572923,166.015625,0.000751621009509
0.0273,-0.440788269043,0.0561097409582,166.625976562,0.000708256171105
0.0274,-0.589561462402,0.0486854822816,167.236328125,0.00109412899784
0.0275,-0.732231140137,0.0402671806023,167.846679688,0.00134384758217
0.0276,-0.887107849121,0.031848878923,168.45703125,0.00156198014332
0.0277,-1.03302001953,0.0234616410876,169.067382812,0.00191592295082
0.0278,-1.17568969727,0.0155403609097,169.677734375,0.00241639733653
0.0279,-1.31855010986,0.00712205923037,170.288085938,0.00232911158122
0.028,-1.4612197876,-0.00129624244892,170.8984375,0.000918994209355
0.0281,-1.60102844238,-0.00868943728165,171.508789062,0.00101664587852
0.0282,-1.73454284668,-0.0176047604623,172.119140625,0.0017135903124
0.0283,-1.87129974365,-0.0255260406402,172.729492188,0.00156142480177
0.0284,-1.99890136719,-0.0334473208181,173.33984375,0.00138264912673
0.0285,-2.13241577148,-0.0418345586536,173.950195312,0.000981163041779
0.0286,-2.25391387939,-0.0492588173302,174.560546875,0.000839536739099
0.0287,-2.38151550293,-0.0571800975081,175.170898438,0.00146099861266
0.0288,-2.49996185303,-0.0660954206887,175.78125,0.00122329902157
0.0289,-2.61535644531,-0.0734886155215,176.391601562,0.00116099364031
0.029,-2.7307510376,-0.0814098956994,177.001953125,0.00128958400766
0.0291,-2.83718109131,-0.0888341543759,177.612304688,0.00242407267228
