"Latest: Time (s)","Latest: Potential (V)","Latest: Current (A)","FFT: Time - Frequency (Hz)","FFT: Potential - FFT"
0,-2.09293365479,-0.156615461624,0,0.0144356153596
0.0001,-1.92279815674,-0.15164524661,0.6103515625,0.693360956942
0.0002,-1.75895690918,-0.146209073939,1.220703125,0.734136449816
0.0003,-1.59492492676,-0.140772901268,1.8310546875,0.297084534263
0.0004,-1.41563415527,-0.134839707096,2.44140625,0.0215032817281
0.0005,-1.24244689941,-0.128409491422,3.0517578125,0.0352304511544
0.0006,-1.06029510498,-0.121979275748,3.662109375,0.0223228464171
0.0007,-0.881195068359,-0.113560974069,4.2724609375,0.010648624005
0.0008,-0.689697265625,-0.106136715392,4.8828125,0.00915077694752
0.0009,-0.507545471191,-0.0992405420607,5.4931640625,0.00313291543511
0.001,-0.322341918945,-0.0908222403814,6.103515625,0.00539386634555
0.0011,-0.136947631836,-0.0833979817048,6.7138671875,0.00316460925278
0.0012,0.0452041625977,-0.0754767015269,7.32421875,0.000840647267444
0.0013,0.230598449707,-0.0670583998476,7.9345703125,0.00427795826304
0.0014,0.421905517578,-0.0581741405108,8.544921875,0.00708977700124
0.0015,0.604057312012,-0.0492588173302,9.1552734375,0.00892711483694
0.0016,0.79231262207,-0.0408405156509,9.765625,0.00600199039426
0.0017,0.971603393555,-0.0319562563141,10.3759765625,0.00316054194063
0.0018,1.14784240723,-0.0230409331334,10.986328125,0.00287579641055
0.0019,1.32694244385,-0.0141566737966,11.5966796875,0.00156761589253
0.002,1.50012969971,-0.0047443291146,12.20703125,0.00128172832215
0.0021,1.67007446289,0.00417099406604,12.8173828125,0.00104338206697
0.0022,1.83715820312,0.0130552534029,13.427734375,0.00043737091382
0.0023,2.00119018555,0.0224675980849,14.0380859375,0.00103413521539
0.0024,2.15911865234,0.0313518574217,14.6484375,0.00124075763341
0.0025,2.3078918457,0.0407642021037,15.2587890625,0.0014240739482
0.0026,2.46295928955,0.0496795252843,15.869140625,0.00104539803523
0.0027,2.60257720947,0.0585637846211,16.4794921875,0.00223895277275
0.0028,2.74238586426,0.0674791078018,17.08984375,0.00228768282892
0.0029,2.86979675293,0.0773574101413,17.7001953125,0.000856180731611
0.003,2.99434661865,0.0857757118206,18.310546875,0.00105685550171
0.0031,3.10668945312,0.0936969919985,18.9208984375,0.00212572616954
0.0032,3.21617126465,0.102581251335,19.53125,0.00188427560512
0.0033,3.31935882568,0.110502531513,20.1416015625,0.00215261136784
0.0034,3.41053009033,0.118423811691,20.751953125,0.00315408389457
0.0035,3.50456237793,0.126345091869,21.3623046875,0.00408137045609
0.0036,3.58352661133,0.134732329705,21.97265625,0.00289551697525
0.0037,3.65047454834,0.14165956688,22.5830078125,0.000753639452759
0.0038,3.71417999268,0.149083825556,23.193359375,0.000759573556726
0.0039,3.76586914062,0.15551404123,23.8037109375,0.0011436111464
0.004,3.81145477295,0.161944256904,24.4140625,0.000552989637653
0.0041,3.85093688965,0.167877451076,25.0244140625,0.000953614103306
0.0042,3.8782119751,0.17284766609,25.634765625,0.00387934959305
0.0043,3.90548706055,0.178780860263,26.2451171875,0.00696703658633
0.0044,3.91464233398,0.183720011432,26.85546875,0.00669075056898
0.0045,3.9176940918,0.188162141101,27.4658203125,0.00379673827577
0.0046,3.90853881836,0.192138313112,28.076171875,0.00192368935984
0.0047,3.89652252197,0.19658044278,28.6865234375,0.000791248815782
0.0048,3.86600494385,0.200525550947,29.296875,0.00103159274312
0.0049,3.83262634277,0.203010658454,29.9072265625,0.00124574404796
0.005,3.79009246826,0.205961723618,30.517578125,0.000862152832711
0.0051,3.74164581299,0.207949809624,31.1279296875,0.00139068205889
0.0052,3.68385314941,0.209440874128,31.73828125,0.00230758379417
0.0053,3.61404418945,0.210931938632,32.3486328125,0.00358828536319
0.0054,3.54118347168,0.210931938632,32.958984375,0.00324761634199
0.0055,3.45611572266,0.211925981635,33.5693359375,0.00261375157191
0.0056,3.36494445801,0.211925981635,34.1796875,0.00260194715004
0.0057,3.27072143555,0.21043491713,34.7900390625,0.000880429256543
0.0058,3.1644821167,0.209937895629,35.400390625,0.00157185592216
0.0059,3.05213928223,0.208446831125,36.0107421875,0.000166591149609
0.006,2.93369293213,0.20645874512,36.62109375,0.00154267274186
0.0061,2.80914306641,0.204004701457,37.2314453125,0.000353278718698
0.0062,2.67238616943,0.20151959395,37.841796875,0.000990111829712
0.0063,2.53582000732,0.198071507284,38.4521484375,0.000532164236671
0.0064,2.38990783691,0.193598313772,39.0625,0.000812958899371
0.0065,2.23503112793,0.189653205605,39.6728515625,0.00176381729646
0.0066,2.08320617676,0.185211075936,40.283203125,0.00313324769153
0.0067,1.91917419434,0.180737882424,40.8935546875,0.0020932616825
0.0068,1.75514221191,0.175798731254,41.50390625,0.00317611516416
0.0069,1.59111022949,0.169865537082,42.1142578125,0.00171705686969
0.007,1.41201019287,0.164429364411,42.724609375,0.00231852188964
0.0071,1.23882293701,0.15899319174,43.3349609375,0.00340087481926
0.0072,1.05972290039,0.151568933063,43.9453125,0.0038283424183
0.0073,0.880432128906,0.145138717389,44.5556640625,0.00447157173655
0.0074,0.69522857666,0.138211480214,45.166015625,0.0029163184943
0.0075,0.510025024414,0.129793178535,45.7763671875,0.00128241098666
0.0076,0.324630737305,0.122368919858,46.38671875,0.00463218595976
0.0077,0.139427185059,0.114975725025,46.9970703125,0.00445266333323
0.0078,-0.048828125,0.107054444848,47.607421875,0.00326355383718
0.0079,-0.231170654297,0.0981391216669,48.2177734375,0.00594342257797
0.008,-0.422477722168,0.090217841489,48.828125,0.00323549965505
0.0081,-0.604629516602,0.0818306036535,49.4384765625,0.0044655602083
0.0082,-0.796127319336,0.0729152804729,50.048828125,0.00234348986378
0.0083,-0.975227355957,0.0635029357909,50.6591796875,0.00242710303753
0.0084,-1.15451812744,0.0541216549527,51.26953125,0.00324858682381
0.0085,-1.33666992188,0.0452063317721,51.8798828125,0.00128439428447
0.0086,-1.50985717773,0.0368190939366,52.490234375,0.0051126718584
0.0087,-1.68895721436,0.0269097277533,53.1005859375,0.0016155269243
0.0088,-1.85604095459,0.018491426074,53.7109375,0.00629517723615
0.0089,-2.02312469482,0.00960716673717,54.3212890625,0.00272542453123
0.009,-2.18105316162,0.000194822055164,54.931640625,0.00300711545861
0.0091,-2.34203338623,-0.00918645878301,55.5419921875,0.00773934731784
0.0092,-2.48775482178,-0.0181017819637,56.15234375,0.00465743517189
0.0093,-2.63366699219,-0.0270171051443,56.7626953125,0.00782778901439
0.0094,-2.77938842773,-0.0363983859825,57.373046875,0.00677130998684
0.0095,-2.91004180908,-0.0443196661604,57.9833984375,0.00212613851539
0.0096,-3.03153991699,-0.0537320108424,58.59375,0.017141576451
0.0097,-3.15895080566,-0.0631132916806,59.2041015625,0.00677751287755
0.0098,-3.26843261719,-0.0710345718585,59.814453125,0.0118119438833
0.0099,-3.37162017822,-0.0799188311953,60.4248046875,0.0323536137942
0.01,-3.47194671631,-0.0878401113732,61.03515625,0.00645561474089
0.0101,-3.56597900391,-0.0952643700498,61.6455078125,0.0174597300627
0.0102,-3.65104675293,-0.103185650228,62.255859375,0.0159570606767
0.0103,-3.7239074707,-0.110609908904,62.8662109375,0.00950907779469
0.0104,-3.7878036499,-0.117040124578,63.4765625,0.0352006042564
0.0105,-3.84540557861,-0.125427362414,64.0869140625,0.00752092723293
0.0106,-3.90625,-0.132354599589,64.697265625,0.0355790330214
0.0107,-3.9457321167,-0.138287793761,65.3076171875,0.0453723394581
0.0108,-3.97911071777,-0.144252051778,65.91796875,0.0172484777923
0.0109,-4.00333404541,-0.149688224449,66.5283203125,0.081136402123
0.011,-4.01859283447,-0.15512439712,67.138671875,0.044715823631
0.0111,-4.02774810791,-0.16006354829,67.7490234375,0.0941563747933
0.0112,-4.02774810791,-0.1640397203,68.359375,0.155953125683
0.0113,-4.01554107666,-0.168481849969,68.9697265625,0.0219898011158
0.0114,-3.99417877197,-0.171929936635,69.580078125,0.310285183504
0.0115,-3.96690368652,-0.174912065643,70.1904296875,0.263055906093
0.0116,-3.93352508545,-0.177366109306,70.80078125,0.414914770126
0.0117,-3.8818359375,-0.180348238314,71.4111328125,1.11236962487
0.0118,-3.82423400879,-0.182336324319,72.021484375,0.148228265731
0.0119,-3.76644134521,-0.183330367322,72.6318359375,4.14179514983
0.012,-3.69968414307,-0.184293346481,73.2421875,9.3096493255
0.0121,-3.62071990967,-0.185784410985,73.8525390625,60.8132385137
0.0122,-3.53565216064,-0.185287389484,74.462890625,128.392454023
0.0123,-3.43837738037,-0.185287389484,75.0732421875,154.5427596
0.0124,-3.34434509277,-0.18379632498,75.68359375,113.522552604
0.0125,-3.23505401611,-0.182336324319,76.2939453125,45.0196640409
0.0126,-3.11946868896,-0.181342281317,76.904296875,2.88082765282
0.0127,-2.99797058105,-0.178360152308,77.5146484375,3.67670938768
0.0128,-2.8736114502,-0.176403130147,78.125,0.695716817957
0.0129,-2.73990631104,-0.173421001139,78.7353515625,0.749464244141
0.013,-2.59418487549,-0.170469935974,79.345703125,0.563729418775
0.0131,-2.45742797852,-0.165996742462,79.9560546875,0.0567702190883
0.0132,-2.29644775391,-0.162548655796,80.56640625,0.289280209975
0.0133,-2.14462280273,-0.158075462284,81.1767578125,0.112409275304
0.0134,-1.98364257812,-0.153136311114,81.787109375,0.0967249423221
0.0135,-1.81655883789,-0.147700138443,82.3974609375,0.120085202422
0.0136,-1.65252685547,-0.141766944271,83.0078125,0.00219613448818
0.0137,-1.47342681885,-0.1363307716,83.6181640625,0.0726696159153
0.0138,-1.30023956299,-0.129900555926,84.228515625,0.0419408002593
0.0139,-1.11808776855,-0.123470340252,84.8388671875,0.025123652556
0.014,-0.941848754883,-0.115549060074,85.44921875,0.0434116695359
0.0141,-0.753593444824,-0.108124801397,86.0595703125,0.00639435890958
0.0142,-0.571250915527,-0.101197564222,86.669921875,0.0257972038731
0.0143,-0.382995605469,-0.0937733055457,87.2802734375,0.0221889959542
0.0144,-0.197792053223,-0.0858830892116,87.890625,0.00942409947641
0.0145,-0.0154495239258,-0.0774647875323,88.5009765625,0.0183682238632
0.0146,0.166702270508,-0.0690464858531,89.111328125,0.00756619531924
0.0147,0.354957580566,-0.0611252056751,89.7216796875,0.0125370916434
0.0148,0.540351867676,-0.0522409463383,90.33203125,0.0114345369561
0.0149,0.725555419922,-0.0428286016563,90.9423828125,0.00141432387671
0.015,0.907897949219,-0.034410299977,91.552734375,0.0125866156116
0.0151,1.08699798584,-0.0250290191389,92.1630859375,0.00273310618935
0.0152,1.26628875732,-0.0166107174596,92.7734375,0.00367873535637
0.0153,1.44233703613,-0.0072294366214,93.3837890625,0.00944941346743
0.0154,1.61552429199,0.00168588655924,93.994140625,0.00288370410624
0.0155,1.78260803223,0.0110982312412,94.6044921875,0.0053226314034
0.0156,1.9495010376,0.0199824905781,95.21484375,0.00700147592066
0.0157,2.10456848145,0.0288978137587,95.8251953125,0.00513440082554
0.0158,2.25639343262,0.0382790945969,96.435546875,0.00506082831316
0.0159,2.41432189941,0.0471944177775,97.0458984375,0.000984736333575
0.016,2.55699157715,0.0561097409582,97.65625,0.00393644063512
0.0161,2.69069671631,0.0654910217963,98.2666015625,0.00229504504661
0.0162,2.82726287842,0.074406344977,98.876953125,0.00165618459246
0.0163,2.95181274414,0.0827935828124,99.4873046875,0.00552700313953
0.0164,3.07025909424,0.0922059274944,100.09765625,0.00336512719351
0.0165,3.17974090576,0.100127207672,100.708007812,0.00233103177174
0.0166,3.2829284668,0.108545509352,101.318359375,0.00296213350567
0.0167,3.38020324707,0.116435725686,101.928710938,0.00113875848534
0.0168,3.46813201904,0.124357005864,102.5390625,0.00170816783011
0.0169,3.55319976807,0.132278286042,103.149414062,0.00298601798255
0.017,3.62911224365,0.14019956622,103.759765625,0.00223773878621
0.0171,3.69300842285,0.147126803395,104.370117188,0.00279696643448
0.0172,3.74755859375,0.154022976726,104.98046875,0.00252185135371
0.0173,3.79619598389,0.159987234742,105.590820312,0.0016571218601
0.0174,3.83567810059,0.165920428915,106.201171875,0.000670961716542
0.0175,3.86905670166,0.172350644589,106.811523438,0.00148895008724
0.0176,3.89652252197,0.17778681726,107.421875,0.00154802061128
0.0177,3.90853881836,0.18272596843,108.032226562,0.00235220908022
0.0178,3.91464233398,0.186671076597,108.642578125,0.00457787998085
0.0179,3.91159057617,0.192138313112,109.252929688,0.00472815577188
0.018,3.89652252197,0.19658044278,109.86328125,0.00402457287177
0.0181,3.87210845947,0.199531507944,110.473632812,0.00144754662065
0.0182,3.84178161621,0.202513636953,111.083984375,0.00244846102551
0.0183,3.80535125732,0.205495765961,111.694335938,0.00362299218612
0.0184,3.75671386719,0.207452788122,112.3046875,0.0019164999138
0.0185,3.70197296143,0.209440874128,112.915039062,0.00162267967025
0.0186,3.6413192749,0.210931938632,113.525390625,0.00313594567382
0.0187,3.56845855713,0.211428960133,114.135742188,0.00240161910548
0.0188,3.48339080811,0.212423003136,114.74609375,0.00334301472725
0.0189,3.39527130127,0.211925981635,115.356445312,0.0018949056744
0.019,3.29818725586,0.211925981635,115.966796875,0.000306168545931
0.0191,3.19786071777,0.210931938632,116.577148438,0.000784838149056
0.0192,3.08856964111,0.209440874128,117.1875,0.00085130242015
0.0193,2.97317504883,0.207452788122,117.797851562,0.00207580104041
0.0194,2.84862518311,0.205495765961,118.408203125,0.00490372400389
0.0195,2.72102355957,0.203010658454,119.018554688,0.00408476375505
0.0196,2.58140563965,0.199531507944,119.62890625,0.00340332378346
0.0197,2.43854522705,0.19658044278,120.239257812,0.00340267936245
0.0198,2.28366851807,0.19164129161,120.849609375,0.00341328328159
0.0199,2.13184356689,0.187168098098,121.459960938,0.00291936480413
0.02,1.97696685791,0.18272596843,122.0703125,0.000504888208144
0.0201,1.80988311768,0.178283838761,122.680664062,0.003187630337
0.0202,1.64279937744,0.172350644589,123.291015625,0.00361986497697
0.0203,1.46961212158,0.166914471918,123.901367188,0.00263319141022
0.0204,1.2996673584,0.160950213901,124.51171875,0.00232982780518
0.0205,1.1173248291,0.154022976726,125.122070312,0.00112093589613
0.0206,0.93822479248,0.148089782554,125.732421875,0.00252114363784
0.0207,0.755882263184,0.140696587721,126.342773438,0.00589356894063
0.0208,0.57373046875,0.133272329044,126.953125,0.00714927872419
0.0209,0.382423400879,0.125351048866,127.563476562,0.00675647521558
0.021,0.200080871582,0.11792679019,128.173828125,0.00519065665246
0.0211,0.0148773193359,0.110005510012,128.784179688,0.00471446021538
0.0212,-0.17032623291,0.102084229834,129.39453125,0.0057096904423
0.0213,-0.35572052002,0.0931999704972,130.004882812,0.00726009730412
0.0214,-0.543975830078,0.0847816688179,130.615234375,0.00870244830979
0.0215,-0.729179382324,0.0763633671386,131.225585938,0.00843823128092
0.0216,-0.914573669434,0.0669820863004,131.8359375,0.00701427273343
0.0217,-1.09672546387,0.0580667631198,132.446289062,0.00633496721094
0.0218,-1.27906799316,0.0496795252843,133.056640625,0.00727746376423
0.0219,-1.45206451416,0.0402671806023,133.666992188,0.00778700946431
0.022,-1.63440704346,0.0313518574217,134.27734375,0.00688862718375
0.0221,-1.80130004883,0.0224675980849,134.887695312,0.00606368452776
0.0222,-1.96838378906,0.0125582319015,135.498046875,0.00508631400705
0.0223,-2.12936401367,0.00367397256468,136.108398438,0.00346734499248
0.0224,-2.28729248047,-0.00524135061596,136.71875,0.00326495595086
0.0225,-2.44216918945,-0.0141566737966,137.329101562,0.00372039206614
0.0226,-2.58502960205,-0.0235379546348,137.939453125,0.0030729341062
0.0227,-2.7307510376,-0.0324532778154,138.549804688,0.00127229468038
0.0228,-2.86750793457,-0.0413375371522,139.16015625,0.00178430648405
0.0229,-2.99797058105,-0.0502528603329,139.770507812,0.0031728759503
0.023,-3.11660766602,-0.0596652050149,140.380859375,0.00336201093285
0.0231,-3.22895050049,-0.0680524428503,140.991210938,0.00278533918288
0.0232,-3.34129333496,-0.0764707445296,141.6015625,0.000800223883883
0.0233,-3.44142913818,-0.0843920247075,142.211914062,0.003410235465
0.0234,-3.53870391846,-0.092779262543,142.822265625,0.00508819201302
0.0235,-3.62377166748,-0.10020352122,143.432617188,0.00358982864055
0.0236,-3.69968414307,-0.107130758395,144.04296875,0.00133588439902
0.0237,-3.76949310303,-0.114555017071,144.653320312,0.000952276451444
0.0238,-3.83033752441,-0.123470340252,145.263671875,0.00221686028437
0.0239,-3.8818359375,-0.129403534424,145.874023438,0.00222925056472
0.024,-3.93352508545,-0.135833750098,146.484375,0.00356141509093
0.0241,-3.97300720215,-0.141766944271,147.094726562,0.00273447816649
0.0242,-4.0002822876,-0.147203116942,147.705078125,0.0012195626397
0.0243,-4.01859283447,-0.152639289613,148.315429688,0.0196302943377
0.0244,-4.02774810791,-0.157609504627,148.92578125,0.0840399356831
0.0245,-4.02774810791,-0.162548655796,149.536132812,0.159745580768
0.0246,-4.01859283447,-0.166990785465,150.146484375,0.179590259392
0.0247,-4.00333404541,-0.169972914473,150.756835938,0.122553262159
0.0248,-3.98216247559,-0.173421001139,151.3671875,0.042721367774
0.0249,-3.94878387451,-0.176900151648,151.977539062,0.00157293897207
0.025,-3.90625,-0.179354195311,152.587890625,0.00301805128618
0.0251,-3.84540557861,-0.180845259815,153.198242188,0.00383222982581
0.0252,-3.79085540771,-0.182833345821,153.80859375,0.00326419102149
0.0253,-3.72085571289,-0.184293346481,154.418945312,0.00140822017087
0.0254,-3.65104675293,-0.184293346481,155.029296875,0.000972118212735
0.0255,-3.56292724609,-0.185287389484,155.639648438,0.00107914191677
0.0256,-3.47194671631,-0.185287389484,156.25,0.00083676508809
0.0257,-3.37162017822,-0.18379632498,156.860351562,0.00052041166208
0.0258,-3.271484375,-0.183330367322,157.470703125,0.00156447409878
0.0259,-3.15895080566,-0.181342281317,158.081054688,0.00202633726842
0.026,-3.04050445557,-0.17885717381,158.69140625,0.00161571389339
0.0261,-2.91900634766,-0.177366109306,159.301757812,0.000850613266633
0.0262,-2.78854370117,-0.174415044141,159.912109375,0.000548854310539
0.0263,-2.64263153076,-0.171432915133,160.522460938,0.00168066060705
0.0264,-2.49996185303,-0.167984828468,161.1328125,0.00217019371076
0.0265,-2.35424041748,-0.163542698799,161.743164062,0.00160572368161
0.0266,-2.19326019287,-0.159069505287,162.353515625,0.000583197945991
0.0267,-2.03838348389,-0.154627375618,162.963867188,0.000489223951215
0.0268,-1.87129974365,-0.149688224449,163.57421875,0.000594193340463
0.0269,-1.70726776123,-0.143755030276,164.184570312,0.000599613639441
0.027,-1.53102874756,-0.138287793761,164.794921875,0.000326983676579
0.0271,-1.36108398438,-0.131857578087,165.405273438,0.000845416892885
0.0272,-1.18179321289,-0.125427362414,166.015625,0.00166462468314
0.0273,-1.00269317627,-0.117537146079,166.625976562,0.00188695877753
0.0274,-0.823402404785,-0.110609908904,167.236328125,0.00211772551409
0.0275,-0.632095336914,-0.103682671729,167.846679688,0.00231657165642
0.0276,-0.446701049805,-0.0962584130525,168.45703125,0.00169510542894
0.0277,-0.261497497559,-0.0883371328746,169.067382812,0.000497034541021
0.0278,-0.0762939453125,-0.0804158526967,169.677734375,0.000697479829146
0.0279,0.109100341797,-0.0725256363626,170.288085938,0.000490301684139
0.028,0.29125213623,-0.0636103131819,170.8984375,0.0014656572272
0.0281,0.479507446289,-0.0541979684999,171.508789062,0.00257347508226
0.0282,0.664901733398,-0.0458107306645,172.119140625,0.00262640987162
0.0283,0.850105285645,-0.0373924289852,172.729492188,0.00296204892005
0.0284,1.02634429932,-0.0279800843032,173.33984375,0.00389673886405
0.0285,1.20849609375,-0.0190958249664,173.950195312,0.00399569028832
0.0286,1.38168334961,-0.0101805017857,174.560546875,0.00340903352154
0.0287,1.56078338623,-0.00129624244892,175.170898438,0.0026487711274
0.0288,1.72786712646,0.00811610223309,175.78125,0.00149968672456
0.0289,1.88884735107,0.0170314254137,176.391601562,0.00113794961286
0.029,2.0528793335,0.0264127062519,177.001953125,0.000767481953795
0.0291,2.20775604248,0.0353280294325,177.612304688,0.000846905268258
